File Name: not saved
Channel 3: 'EKG', 22920 values, raw ADC, no filters.
Channel 4: 'FCR_EMG', 22920 values, raw ADC, no filters.
Channel 5: 'FCU_EMG', 22920 values, raw ADC, no filters.
Channel 7: 'ECU_EMG', 22920 values, raw ADC, no filters.
Channel 8: 'ECR_EMG', 22920 values, raw ADC, no filters.

158	-6	14	35	-13
158	0	22	72	0
158	-1	23	40	0
158	-2	24	19	-4
157	2	23	-13	-12
158	1	12	39	-5
157	0	11	89	4
158	-5	7	37	0
158	-6	11	-89	16
158	-4	23	-138	30
157	-2	25	-208	31
157	-1	18	-314	33
159	2	18	-214	29
158	4	15	-85	3
158	4	17	83	-14
157	4	19	232	-12
158	1	14	156	-9
157	10	20	137	-22
157	10	24	82	-35
157	11	27	53	-66
158	5	14	45	-86
158	1	17	-79	-26
157	4	14	-43	-2
157	1	14	15	7
158	2	19	55	18
157	1	14	35	25
158	5	23	-8	32
158	3	17	71	7
157	1	22	38	-30
157	4	18	44	-74
157	4	11	40	-97
158	10	25	-145	-75
157	8	30	-83	-13
158	5	19	40	5
158	8	17	-29	6
158	7	24	-86	25
158	7	19	48	35
159	9	17	271	48
158	11	22	162	45
157	8	24	9	57
158	8	27	-20	63
157	7	22	-7	72
157	3	19	23	87
158	3	21	46	81
158	0	17	94	58
157	-6	11	-4	0
157	-16	9	-73	-46
157	-8	16	-111	-81
159	2	22	-100	-107
157	-9	19	-96	-97
157	-17	14	-60	-49
159	-9	16	2	-10
158	-7	18	-68	14
157	13	18	-42	24
158	37	15	19	19
158	28	19	39	20
157	3	24	13	0
158	-49	19	53	-9
159	-55	17	162	8
157	-22	15	113	25
157	-18	18	43	21
158	-2	15	-14	16
158	23	15	-66	12
158	68	20	-43	13
158	141	18	-43	10
157	131	17	-26	7
158	3	13	-16	13
157	-37	10	-22	12
157	-22	9	7	20
158	-70	9	4	13
157	-17	17	16	11
158	10	25	22	15
157	32	37	24	15
158	135	34	29	10
157	151	26	1	3
157	90	26	-36	0
157	46	29	-47	-10
158	-8	32	0	-7
157	-127	28	7	0
158	-169	24	10	0
157	-101	21	39	0
158	4	19	53	-1
158	5	17	48	1
157	5	14	25	-1
157	78	6	13	-4
157	64	4	-10	-3
157	37	15	28	-6
157	12	21	53	-16
158	46	22	37	-11
158	15	20	-23	11
158	-32	19	-75	22
157	-18	10	-8	16
157	-59	13	-11	7
157	-51	12	-7	-7
158	-17	8	19	-15
157	22	11	-7	-6
157	81	14	-12	-7
157	75	24	22	-18
157	18	16	71	-27
157	0	17	25	-20
158	-30	21	43	-14
158	-77	18	33	-13
157	-101	16	10	-7
157	-47	15	63	-5
158	8	15	35	9
158	-19	12	46	13
158	-5	19	39	4
158	-10	22	-26	18
157	-8	18	-39	11
158	4	22	-23	8
158	7	23	-31	6
158	17	18	-30	0
158	8	11	-18	9
157	18	13	-22	7
158	12	18	-14	0
158	16	22	-14	1
157	15	19	-36	6
157	12	18	-33	12
157	16	19	-6	21
158	14	18	-12	12
158	16	22	-54	-9
157	13	23	-67	-18
157	12	17	-17	0
158	9	16	40	-3
158	8	10	114	-12
158	9	11	117	-5
158	10	19	47	-15
157	10	16	44	-15
158	13	19	-8	-5
157	12	21	-29	-4
158	3	14	85	-9
158	-5	13	29	-12
157	-5	21	-72	-5
157	3	26	7	11
158	4	27	-51	15
158	9	23	-31	18
158	12	19	1	25
157	21	22	-23	27
157	25	19	21	33
157	17	18	-13	25
158	15	23	1	18
158	11	21	-2	21
158	11	21	60	18
157	10	20	80	10
158	8	15	16	1
157	8	14	3	-5
158	9	17	-6	-12
158	8	18	-8	-17
158	4	17	-8	-15
157	3	14	13	-13
157	-1	8	13	-10
158	-13	6	-57	-8
158	-15	11	-157	-19
158	-5	11	-111	-40
157	1	16	14	-28
158	3	10	186	-9
158	12	10	342	-5
158	29	29	210	-2
157	41	28	47	-8
157	25	24	17	-6
157	4	19	-82	1
157	-13	21	-62	14
157	-33	20	21	22
158	-37	16	80	26
157	-29	18	77	6
157	0	13	-27	-11
157	36	18	-101	-4
159	41	21	-99	0
158	31	21	-46	13
157	34	24	-40	15
157	53	22	24	12
158	47	17	59	6
158	2	20	27	10
158	-62	28	-48	13
157	-64	28	0	12
157	-5	24	5	14
157	-13	22	-61	4
157	-28	14	-6	-5
158	5	15	-35	-8
157	46	21	2	1
157	65	19	0	9
157	45	14	25	7
159	25	13	31	4
157	9	15	-29	12
159	1	12	-21	17
158	13	20	-26	11
158	18	26	-14	10
158	16	27	-22	2
157	30	21	21	-2
158	23	16	33	6
158	37	17	48	0
157	-4	15	49	-2
157	-66	11	28	-7
157	-53	10	13	-6
158	-63	16	-31	-1
158	-53	17	1	8
157	-26	16	-8	19
157	37	11	9	11
157	-12	5	12	7
157	-61	11	54	-3
158	-13	21	102	-10
157	-15	22	61	-3
158	18	12	69	-2
158	1	17	9	-21
158	-5	23	-49	-27
158	15	27	-95	-18
158	56	34	-88	-11
158	77	27	15	-2
158	58	18	68	1
158	57	17	60	0
158	38	19	39	-1
157	28	25	49	1
157	1	27	-12	5
157	-6	23	-56	11
158	-13	22	-35	10
157	-19	20	-7	6
158	-20	17	80	6
157	-32	14	94	-4
157	-27	9	47	-3
158	-23	9	28	6
157	-6	12	-1	-9
158	8	13	-38	-6
157	24	15	24	3
157	38	11	82	-3
158	37	16	90	7
158	17	16	126	11
157	9	11	115	7
157	36	12	1	6
157	47	15	-122	-9
158	-34	7	-110	-12
158	-102	8	-144	-4
157	7	17	-185	4
157	126	21	-152	13
157	117	23	-16	11
157	22	19	172	7
157	37	27	53	1
157	74	31	-4	2
158	-86	18	17	-1
158	-164	10	-36	-7
157	-74	16	12	-6
157	-14	24	60	-4
157	-70	17	81	-7
157	-129	29	-45	6
157	-87	33	-45	13
158	-28	20	26	1
158	-19	17	23	-2
158	-8	25	-10	4
157	2	27	-39	6
158	35	21	20	10
158	67	18	-8	4
158	44	17	-1	0
158	40	19	-2	-1
158	35	22	4	-1
157	50	27	37	-1
157	114	24	47	-2
157	130	13	72	12
158	102	11	39	27
158	52	15	19	19
157	32	25	28	-1
158	39	23	13	-11
157	1	18	-6	-8
157	-16	17	23	-6
157	-2	14	22	-12
158	3	16	41	-10
157	7	14	58	-5
158	0	17	12	-3
158	0	19	-45	11
158	9	24	-55	15
157	7	22	8	3
157	-2	22	-11	4
157	-13	19	-29	0
158	-21	14	-14	-7
158	-17	15	-5	-12
157	-22	15	21	-12
158	-21	16	35	-9
157	-14	14	28	-6
158	-13	17	-19	3
158	-9	16	-28	2
158	-16	15	-5	4
158	-15	18	-6	4
158	-18	15	8	7
157	-14	11	42	9
157	-6	15	51	6
157	-7	19	24	7
157	-18	17	8	4
157	-19	17	11	7
157	-18	15	-14	11
157	-4	15	3	6
157	19	15	6	4
157	19	15	-29	-1
157	19	14	-16	-8
159	23	15	-4	-8
157	20	17	17	-8
157	14	19	21	1
157	8	23	42	10
157	8	19	54	9
158	15	15	-1	11
158	15	16	-36	-2
158	11	15	-15	-8
158	12	19	6	-1
158	5	18	-19	2
157	3	15	-11	8
158	6	21	0	2
158	5	15	8	2
157	8	13	-6	1
158	8	18	-41	3
158	8	17	-39	5
158	7	19	-46	11
157	6	18	9	9
157	-7	15	56	-4
157	-17	17	38	-18
158	-6	17	61	-20
159	0	18	74	-3
158	5	19	33	6
157	12	17	20	17
158	24	14	38	12
158	34	19	0	-8
157	31	26	-8	-21
157	30	24	9	-15
158	20	22	40	-7
158	8	19	58	3
157	5	18	-22	10
157	9	29	-82	17
158	22	33	-47	8
157	7	28	-12	2
157	-23	25	-32	10
158	-24	21	-14	6
157	-27	17	-8	10
157	-61	14	-4	2
158	-109	11	7	-2
158	-112	11	40	-2
158	-35	8	40	11
157	34	10	1	15
158	125	19	6	-1
157	168	22	-2	-2
158	140	21	17	-5
157	129	29	19	-1
157	61	29	-12	-1
158	29	26	-23	-1
158	24	22	19	-1
158	22	16	29	4
157	37	17	-15	3
158	28	18	-27	0
158	-24	20	-17	0
157	-59	11	0	-1
157	10	15	-14	4
157	-13	13	-2	2
158	-91	13	-2	6
157	-98	24	-1	4
157	-127	18	14	-2
158	-145	9	2	-2
158	-117	19	-7	-6
157	25	26	0	-9
158	89	23	25	-9
157	55	25	53	0
157	80	23	58	5
158	31	17	-24	10
157	-2	18	-46	-5
158	11	17	41	-18
157	32	19	52	-12
157	17	19	43	-7
158	5	22	57	-1
157	12	22	57	2
158	4	17	73	5
157	12	7	27	6
157	2	2	-66	6
158	6	7	-61	-6
157	3	11	-7	4
158	7	21	-2	4
157	14	19	13	4
158	8	18	33	6
158	7	20	39	7
158	1	17	36	18
158	-1	12	35	10
158	-1	10	42	5
158	2	15	14	0
157	1	19	4	-8
158	1	23	-2	-7
157	5	21	-15	2
158	15	22	12	1
157	23	25	47	6
158	18	26	39	15
158	5	27	21	12
158	9	24	33	5
157	14	19	1	5
158	8	13	-24	9
157	7	12	20	-10
158	1	21	26	-9
157	2	21	0	0
158	2	17	-32	1
158	-3	22	-58	1
158	-5	21	-38	1
157	-2	19	-9	7
157	0	17	19	-2
157	3	14	1	-6
157	10	15	-12	1
159	16	15	18	3
157	23	17	32	1
158	14	19	48	4
158	1	17	35	9
159	5	17	12	10
158	0	19	-8	9
158	-4	17	-26	1
158	-1	16	-3	-9
157	6	18	15	-5
158	9	14	31	5
158	12	14	39	6
158	23	16	34	2
158	20	17	30	0
157	5	16	5	-1
158	2	18	-10	3
158	-3	18	4	1
157	-18	15	6	0
159	-58	15	-16	2
158	-108	15	-6	-4
158	-89	17	32	-5
158	-70	15	2	2
158	-53	21	-86	11
157	2	18	-48	7
158	44	13	66	8
158	108	17	17	4
158	146	21	4	-7
157	133	28	43	-4
158	95	29	12	0
157	49	27	23	-1
158	49	22	13	-3
157	45	21	27	-5
158	18	23	34	-4
158	3	24	25	1
158	-2	22	47	1
157	-10	19	47	4
158	-8	17	22	11
158	-17	22	-18	7
158	-18	19	-8	1
158	-13	11	-4	0
158	-12	18	-16	2
157	-9	16	-23	4
157	-14	16	-24	8
157	-12	15	-9	4
159	-15	17	-7	4
157	-14	15	8	7
157	-12	14	17	9
158	-12	13	23	5
157	-10	16	19	-7
158	-14	19	-4	0
157	-13	19	8	-6
158	-12	22	26	0
158	-11	19	27	9
157	-10	17	8	6
158	0	17	-40	6
159	3	12	-44	-3
158	5	10	-27	-8
158	11	15	-11	-19
158	12	17	4	-20
157	10	18	-7	-10
158	14	24	23	-4
158	16	22	82	1
158	13	17	54	1
157	3	19	-11	3
157	-8	17	19	-3
158	-8	11	34	2
157	-11	17	22	5
157	-14	20	-8	7
157	-2	19	-43	9
157	11	17	31	6
158	10	16	9	7
157	14	19	-11	3
158	10	17	1	7
158	13	17	-17	7
158	27	21	-2	7
158	12	28	-15	9
158	27	29	-2	4
158	44	24	-8	1
157	34	22	5	0
157	45	18	14	-5
158	92	19	21	-7
158	115	24	24	0
157	56	19	29	7
157	-22	14	42	11
158	-109	14	45	9
158	-141	14	62	7
158	-158	15	16	11
157	-111	15	-66	17
158	7	23	-70	18
157	24	19	15	-2
158	71	23	-9	-9
157	107	30	-23	-13
158	81	24	-2	-12
157	7	17	-18	-7
158	-44	20	11	-9
158	-31	19	4	-5
157	-37	14	13	-11
158	21	14	-4	-11
157	47	15	-1	-7
158	63	15	12	-4
157	71	15	5	-2
158	46	21	13	-1
158	33	21	5	-1
158	-9	24	13	3
158	-28	23	9	7
158	-39	21	18	4
158	-36	21	12	5
158	-28	19	13	1
159	-11	19	24	1
157	3	19	25	1
158	16	16	35	-1
158	30	15	20	3
158	35	15	-5	3
158	38	12	-24	11
157	19	13	-27	4
158	3	15	-5	1
157	-6	15	19	10
157	-5	17	27	4
158	-4	17	26	4
158	-5	13	26	2
157	-5	15	21	4
158	-5	17	12	7
157	-5	19	19	-3
157	-10	19	26	-7
157	-13	18	14	2
158	-14	21	10	4
157	-8	17	7	-2
157	-3	14	15	-2
158	8	15	21	0
157	10	15	30	6
158	17	17	29	2
157	19	22	-5	3
158	10	24	-13	-8
158	10	19	-1	-6
157	10	17	3	1
157	5	13	18	3
157	3	14	10	2
157	-4	15	-13	-4
157	-7	19	-57	-2
158	-3	22	-73	-1
157	2	24	-10	6
157	5	18	15	14
157	11	17	5	12
157	18	20	-7	3
158	18	18	-4	-1
157	17	19	22	0
157	16	22	36	4
158	11	21	52	10
158	8	22	12	6
158	5	19	11	4
158	4	16	58	0
157	2	18	47	3
157	1	21	23	11
157	-1	18	14	13
158	-4	18	2	13
158	0	21	-10	7
158	1	16	-16	-6
158	3	19	-22	-19
158	4	19	-19	-11
158	5	17	-19	-2
158	8	15	-12	-7
157	10	15	4	-8
158	17	16	26	-9
158	15	16	41	-9
158	11	15	17	-2
158	7	15	3	0
157	4	15	5	-2
158	5	16	9	3
157	4	20	10	3
158	2	21	1	0
157	-1	17	-1	4
157	-1	18	1	3
158	-3	14	10	0
158	-11	14	24	2
157	-18	16	31	4
157	-11	15	29	0
158	4	15	-3	4
158	16	18	-36	11
158	24	19	-19	7
158	24	22	-6	12
157	24	23	3	6
158	18	20	4	6
158	11	19	-7	6
158	11	18	-2	0
158	1	18	-2	7
157	-12	18	3	7
158	-24	16	5	6
158	-15	14	10	1
158	-5	16	22	0
158	-1	17	27	-5
157	18	19	14	-4
158	54	26	-10	-2
158	64	29	-8	-6
159	22	30	5	7
158	-10	30	42	7
158	-13	20	17	6
157	-25	12	-58	8
158	-47	14	-70	0
157	-94	17	-31	-6
158	-82	17	1	-9
158	5	18	-15	-16
158	23	14	12	-11
157	36	13	20	0
157	55	24	33	2
158	77	21	66	-1
158	92	18	90	-9
158	73	16	77	1
158	44	19	41	8
158	0	21	42	2
157	-9	20	24	2
158	5	22	19	-3
158	8	19	5	-4
158	4	20	-8	-3
157	8	22	-5	-1
157	4	21	1	7
158	-2	15	-2	9
157	1	14	-11	13
158	8	15	-6	9
157	10	15	-13	2
157	1	16	-1	0
158	2	18	-2	1
158	-1	17	-1	11
158	-9	19	9	13
157	-10	19	12	18
157	-12	11	6	20
158	-10	11	-4	11
158	-7	16	12	-5
157	-6	15	47	-19
157	-10	14	60	-13
157	-7	14	8	-2
157	-6	19	-67	0
157	-7	19	-29	-1
158	-9	17	16	4
158	-6	19	-12	4
157	-5	17	6	3
157	-4	17	4	6
158	-3	19	4	9
157	-1	21	8	6
157	4	18	6	-1
157	7	22	1	-5
158	9	25	-11	-6
157	8	19	-2	-4
158	8	19	-17	-4
157	9	19	-7	-3
158	8	22	7	-2
157	5	19	21	-6
157	4	10	41	-4
157	8	12	42	2
157	8	18	28	3
157	8	17	10	11
158	7	19	34	12
157	8	20	50	8
158	8	16	66	14
158	8	14	40	11
157	11	15	-7	5
158	9	17	-4	-8
157	11	21	-59	-12
157	11	24	-81	-8
158	7	21	-22	-6
158	6	21	-27	-12
158	4	22	-11	-20
158	5	19	-8	0
158	5	17	-19	2
157	4	17	20	-2
157	5	19	38	3
158	3	22	40	-1
158	7	19	29	-2
158	9	21	46	8
157	11	21	68	15
157	7	19	69	7
157	5	19	24	7
158	4	18	-27	2
157	4	16	-17	3
158	10	17	-15	7
158	7	18	-24	4
159	8	18	-31	4
158	7	18	-26	2
158	4	18	33	-1
158	8	17	85	-1
158	6	19	50	2
157	7	17	22	3
158	4	17	-4	9
158	2	19	-28	15
157	-1	19	-16	16
158	0	19	-28	8
158	3	19	-28	7
158	5	21	-35	7
157	9	19	-36	13
157	5	15	-6	25
157	4	14	29	27
158	4	20	46	28
157	7	24	39	10
157	10	21	38	-11
157	8	19	5	-22
157	6	18	-26	-32
157	5	19	-21	-44
157	7	22	31	-60
158	6	17	106	-41
157	5	16	42	-10
158	2	15	-32	0
158	-1	14	5	18
158	1	16	-19	16
158	1	17	-37	4
158	0	18	-8	8
157	4	19	32	-1
158	4	19	54	-10
157	8	23	12	-24
157	9	21	9	-33
157	10	23	19	-29
158	12	24	32	-25
158	5	21	34	7
156	3	21	-32	44
158	4	23	-45	43
157	4	21	2	45
158	1	14	8	44
158	5	17	-2	26
158	7	15	7	25
158	9	15	-5	7
158	1	12	-33	-4
158	-1	13	14	-30
158	4	15	28	-50
157	2	15	-28	-9
158	6	20	19	2
158	4	13	40	10
157	5	15	9	9
158	5	19	24	-1
157	3	19	23	24
157	1	15	21	19
158	4	21	27	11
158	9	24	52	-8
158	8	18	55	-33
157	7	19	24	-46
158	7	17	4	-67
158	5	22	-41	-64
158	3	17	-20	-18
158	3	15	39	9
157	3	18	0	13
158	3	16	-45	20
159	2	17	-65	13
158	4	21	-75	27
158	5	18	-43	34
158	4	17	-13	47
158	1	19	-21	59
158	2	13	-38	74
157	6	19	-46	89
157	8	23	-59	62
157	7	19	-48	38
158	5	18	-11	4
158	5	14	16	-25
158	5	15	42	-53
158	7	16	43	-79
157	8	19	42	-83
157	5	18	60	-39
158	7	19	86	5
157	3	17	123	0
158	5	19	40	7
157	4	21	89	14
158	5	18	159	24
158	8	22	30	25
158	5	15	36	31
158	2	11	36	37
157	0	18	-23	40
157	5	22	-48	43
158	3	15	-54	23
157	1	21	-24	4
158	7	23	-2	-33
158	7	18	-33	-60
158	7	23	-46	-65
158	5	19	6	-79
158	4	19	10	-43
158	3	15	9	-14
157	4	17	6	-31
158	7	19	-25	-7
158	3	19	15	10
158	5	22	47	-2
158	7	22	-11	12
157	7	18	-26	22
158	5	14	-17	16
158	5	17	10	5
158	5	17	62	12
158	3	11	-38	26
158	7	16	-70	8
158	5	21	24	13
158	5	15	-3	20
158	4	13	30	18
158	-6	11	47	17
158	-21	10	47	8
158	-32	14	25	11
157	-16	22	-27	-4
157	-2	19	54	-12
158	12	17	50	-6
157	22	22	10	-9
157	24	19	40	-11
157	42	19	17	-2
157	47	23	-41	0
158	34	27	-65	-2
158	22	24	-48	-5
157	18	22	-51	-2
157	17	21	-29	15
158	5	18	33	24
157	1	15	96	33
158	1	13	124	33
157	-2	11	137	21
158	-1	9	96	8
158	3	19	-47	4
157	-1	19	-25	2
158	-2	19	-25	-24
158	-1	22	-71	-41
157	1	19	-13	-35
158	5	23	-1	-24
157	6	25	25	-20
157	2	23	47	-5
157	4	19	82	7
158	5	18	46	9
157	3	10	-14	15
158	2	12	-42	8
158	3	17	-62	1
157	3	17	-71	4
157	4	20	-80	-2
158	1	15	-27	-12
157	-1	15	26	-18
158	0	17	19	-15
157	0	19	-12	-12
157	2	18	-15	-6
158	3	21	-10	7
157	3	18	-27	4
158	5	19	-39	1
157	3	22	5	2
157	5	15	38	-2
158	6	13	24	-11
159	5	17	35	3
158	5	19	37	18
157	5	22	15	36
158	7	23	35	61
157	4	14	30	59
158	4	19	-1	73
158	8	19	-5	71
158	5	19	-6	55
157	1	17	8	36
158	10	15	-8	6
158	10	16	-22	-14
158	3	19	-13	-33
158	3	19	88	-75
157	8	17	218	-82
158	14	24	29	-69
158	15	25	-92	-114
158	9	18	40	-103
157	4	15	71	-49
158	3	19	31	-20
157	-2	18	2	8
158	0	16	2	21
158	4	17	-67	42
158	0	20	-69	55
157	-1	22	-48	72
157	4	18	-60	64
158	1	19	17	44
157	-1	12	43	11
158	1	18	37	-30
158	5	22	54	-46
159	8	23	42	-50
157	10	23	-8	-28
158	9	19	-23	1
157	5	18	-30	7
157	2	18	-22	10
157	3	18	-43	4
158	4	17	-61	4
158	4	14	2	11
157	4	17	27	5
157	5	17	22	11
157	4	16	48	14
158	5	15	135	13
157	6	16	134	15
158	3	16	0	17
158	4	19	-30	18
157	8	19	-22	24
158	6	15	-30	27
157	5	17	28	29
158	2	17	33	29
158	0	15	20	15
157	1	14	10	8
158	-1	20	-19	1
157	-3	22	-22	-7
158	-3	18	0	-14
158	1	21	-3	-24
158	5	19	-12	-31
157	12	19	-10	-37
158	25	21	-5	-11
157	20	22	-28	2
158	-5	20	-12	16
158	-15	18	58	24
158	-12	15	37	27
158	-3	10	22	37
157	0	15	-9	17
158	6	19	-58	7
158	16	21	-45	9
157	28	23	-43	2
158	47	28	17	-15
157	43	25	59	-35
158	30	21	21	-63
158	19	21	-25	-53
158	13	15	-38	-15
158	10	11	-58	-10
158	3	18	7	-9
157	7	20	119	-6
157	2	14	17	5
158	0	18	7	11
157	-4	16	-6	16
159	-7	17	-77	25
157	-4	17	8	17
157	-4	16	32	15
157	0	21	39	15
157	-4	17	-2	15
157	-2	16	-24	23
157	1	13	15	26
157	-1	13	61	39
158	-5	10	66	47
158	-3	13	17	44
157	4	24	30	27
157	5	21	23	-13
157	3	18	53	-62
158	0	17	61	-84
158	1	27	-39	-55
158	7	31	-64	-34
158	6	24	-18	-43
158	6	23	2	-33
157	8	15	54	2
159	3	12	98	33
158	2	15	60	49
158	-3	10	42	49
157	-7	15	-10	40
157	-5	15	13	21
157	1	15	18	0
157	6	19	-28	-8
158	7	15	3	-12
157	9	17	-10	-23
157	3	19	-37	-37
158	6	22	-56	-29
158	9	24	-25	-29
158	8	26	25	-26
157	11	24	39	-15
158	4	16	29	-12
157	5	17	24	-1
158	6	18	9	3
158	3	17	-18	13
158	3	19	-27	21
157	4	19	-55	31
158	10	21	-51	33
158	11	20	-19	34
158	7	17	-4	45
157	8	17	3	45
157	4	16	48	51
157	3	17	58	41
158	7	19	-22	22
157	5	18	20	8
158	5	17	125	-11
158	5	15	118	-23
159	7	17	21	-39
158	5	22	-12	-61
158	6	21	17	-73
157	5	17	-30	-63
157	3	19	-55	-26
157	7	19	-89	7
157	7	22	-109	15
157	3	20	-90	17
158	-5	17	-83	15
158	-11	16	-86	8
157	-21	9	6	6
158	-25	9	172	15
158	-6	17	127	26
157	7	14	63	34
157	20	9	110	44
157	30	19	92	27
158	21	24	67	3
157	31	22	3	7
157	39	30	-19	12
157	36	31	96	2
157	28	30	61	-12
158	13	24	-45	0
158	7	15	-25	16
158	2	15	-68	12
158	-1	17	1	3
157	1	14	36	-21
158	-4	11	-57	-41
158	0	21	-105	-60
157	4	24	-104	-61
158	1	20	5	-41
158	0	14	4	-9
158	-4	16	-49	13
158	0	18	-41	13
158	-5	14	66	15
158	-4	11	181	13
158	1	15	52	22
157	5	23	-9	23
158	3	15	6	4
158	3	17	-26	-4
158	3	15	30	14
157	3	10	78	24
158	4	13	65	28
158	3	17	-19	24
158	4	22	-2	11
158	2	18	-16	-7
157	3	15	-73	-10
158	3	19	10	23
157	3	23	0	18
157	4	21	4	14
158	5	18	-16	12
158	8	14	-45	-3
157	6	13	-3	-3
157	8	15	44	-16
158	4	18	31	-4
158	2	19	-2	-11
158	-4	15	43	-38
157	-8	14	-63	-48
158	-6	21	-101	-46
158	0	21	45	-21
158	2	17	117	0
158	8	21	86	6
158	20	27	-45	12
157	16	21	-63	19
157	12	26	-20	23
158	12	26	-24	18
158	8	19	23	15
157	9	24	-13	14
158	6	21	-10	15
158	5	14	97	19
158	8	11	94	20
157	6	16	79	21
158	3	12	140	25
158	0	11	77	31
157	-2	18	-40	8
158	-1	14	-118	-1
158	2	23	-131	3
158	0	21	30	-14
157	-5	22	100	2
158	-3	24	5	-7
158	-7	13	-23	-24
158	-22	18	-28	-32
157	-23	13	-35	-36
158	10	11	3	-17
157	19	9	-3	-11
157	16	14	-4	2
157	23	16	52	8
158	29	24	-32	14
158	43	38	-77	15
158	33	32	25	15
158	12	29	49	20
157	22	23	45	23
158	22	17	9	18
157	8	21	-14	1
157	4	19	-48	-22
158	-1	15	-50	-51
157	-3	22	17	-54
158	-2	21	39	-17
158	-3	18	57	-9
157	-3	19	41	-1
158	-4	15	21	12
158	-7	14	-19	12
158	-4	15	-48	29
158	-2	14	-7	27
158	-1	14	-12	21
158	-3	17	8	2
158	-7	17	-15	0
158	3	22	-68	-5
157	10	19	-90	-9
158	8	12	-52	-1
158	3	14	97	3
158	-2	21	85	10
157	1	17	10	10
157	1	16	80	27
157	7	21	88	37
158	9	18	120	39
157	7	19	96	34
158	5	14	57	22
158	1	15	111	-2
157	4	24	-9	-4
158	4	14	-58	-19
157	11	21	-45	-53
158	14	30	-68	-65
158	8	19	-12	-44
157	7	19	38	-10
157	1	22	67	-25
159	-1	16	68	-11
157	6	14	12	-4
158	5	19	2	-15
158	5	17	13	-12
158	6	17	-24	-9
158	3	13	-19	3
158	3	15	-12	9
157	5	21	-19	18
158	8	16	-25	31
158	4	13	29	42
157	6	11	-33	22
158	7	14	-60	30
158	6	18	26	17
157	7	28	-59	-14
157	-11	19	-42	-1
157	-31	13	-31	-4
158	-23	18	27	-6
158	-7	15	108	-10
158	2	18	27	-4
158	14	22	27	18
158	25	21	42	16
158	37	22	71	7
158	41	24	-4	11
158	33	25	-77	24
157	25	23	-49	23
157	20	19	14	17
158	12	18	32	12
159	8	22	-3	-8
157	3	19	-1	-33
158	-1	21	-26	-38
158	0	21	11	-11
158	0	17	2	-1
158	-3	18	-8	4
158	-8	15	-7	10
158	-7	12	-19	-1
158	-8	15	2	9
157	-9	18	12	8
157	-3	16	37	2
157	-1	19	20	-2
157	9	21	9	-4
158	17	22	5	1
157	17	22	-13	3
158	11	19	-39	11
158	11	25	-52	12
158	12	21	-18	11
157	9	18	-40	12
158	3	17	-54	15
157	-1	13	36	27
158	3	17	123	32
157	1	14	134	35
157	-2	14	159	24
157	1	16	106	11
158	5	17	40	1
157	4	12	72	-6
158	3	14	10	-11
157	5	10	-7	-39
158	3	15	71	-52
158	1	14	89	-54
157	-5	13	21	-57
158	1	24	-39	-25
157	5	22	-51	-15
157	3	13	-78	-23
157	4	18	-159	-10
158	0	22	-164	1
158	-2	22	-18	19
158	3	23	-32	41
158	-2	17	-61	66
157	1	22	-44	74
158	3	22	-55	86
158	4	15	72	75
158	11	16	212	21
157	17	24	111	-30
158	21	24	-102	-77
158	20	19	-67	-133
158	15	20	18	-107
158	0	21	55	-33
157	-6	20	32	-34
158	5	18	24	-24
158	-1	13	36	-6
157	-4	16	5	3
158	3	15	57	19
158	11	16	86	23
157	20	16	102	30
157	20	16	37	25
157	21	19	-27	29
158	29	17	-14	28
158	23	12	-34	27
158	8	17	-100	16
158	5	22	-108	10
158	5	18	-17	-1
158	1	18	3	-4
158	-2	17	-21	10
158	-3	18	-30	4
158	-1	22	-4	10
158	-2	19	48	13
158	-2	20	82	17
158	0	22	57	12
157	-1	20	43	5
157	0	17	49	14
157	-1	14	-22	15
157	-3	14	-89	8
157	-1	17	-117	7
157	0	18	-51	8
158	1	17	-25	2
158	1	15	-69	13
158	3	13	-12	16
158	4	18	80	20
158	5	23	75	18
157	4	19	50	7
158	0	15	122	11
157	2	19	98	13
158	5	19	7	1
158	3	15	-74	-10
157	-1	13	-30	-9
157	-1	12	128	-10
158	0	19	121	-21
157	-1	22	72	-20
157	1	24	98	8
158	8	25	65	15
157	13	23	31	12
157	17	28	87	0
158	28	25	60	-46
157	24	14	-33	-106
157	9	17	-151	-121
158	10	25	-122	-60
158	10	26	-59	-16
157	7	23	-78	-2
158	7	22	-16	16
157	8	17	-62	22
158	6	11	-41	21
158	-2	12	-4	19
157	-2	13	-16	24
157	-10	16	-1	28
158	-15	19	-12	23
158	-12	17	16	7
157	-3	23	-3	2
157	10	25	16	7
158	16	22	35	7
158	15	20	33	10
157	18	17	29	19
158	21	24	11	20
157	16	23	17	16
157	10	19	25	12
158	9	17	41	7
157	1	14	35	17
158	-4	15	35	19
158	3	17	21	16
157	7	14	15	11
158	7	15	18	4
158	1	21	21	16
158	-1	19	31	11
157	-2	12	-4	14
158	-9	13	-31	10
157	-17	19	-22	7
158	-16	17	-10	12
157	-1	15	-4	8
157	5	15	-15	12
157	11	15	-54	11
158	15	19	-27	1
157	18	17	35	-14
158	16	17	10	-22
157	5	20	-23	-8
158	3	15	-25	-3
157	3	14	-59	-23
158	6	19	-65	-21
158	7	20	11	-16
157	5	18	146	-20
157	8	21	193	-36
158	11	20	101	-34
157	11	23	82	-24
157	11	17	50	-11
157	11	9	-5	4
159	14	20	22	12
158	16	17	22	27
158	15	19	13	35
157	12	19	7	33
159	13	16	32	19
158	11	17	40	12
157	6	17	8	0
158	1	13	12	-25
159	-3	8	-50	-32
157	-5	11	-111	-20
157	-4	14	-136	0
158	2	26	-162	8
158	3	24	-89	6
158	2	23	-27	6
157	-1	23	0	-4
157	-3	22	10	3
158	1	22	19	2
158	0	19	52	2
158	0	17	22	7
158	-2	15	49	4
157	1	17	84	11
158	3	17	21	11
158	1	22	-41	17
158	0	19	-54	11
158	-1	17	-40	8
158	-1	21	-11	12
158	7	26	13	10
158	18	21	53	11
158	11	13	124	9
157	3	17	44	23
158	8	22	-44	28
158	8	22	16	4
158	9	17	42	-22
157	14	17	33	-48
157	9	17	58	-62
157	8	17	31	-47
158	7	14	-8	-40
158	2	16	-19	-15
157	-1	17	19	14
157	0	14	22	6
158	2	17	6	3
157	7	15	10	4
158	3	17	25	9
157	1	19	18	24
158	3	22	-34	27
158	-3	17	-3	22
157	-6	18	-12	18
158	-3	18	-5	12
157	-1	20	26	10
157	1	22	24	4
158	8	17	58	1
158	14	18	64	6
158	22	21	40	7
158	27	24	-6	9
157	17	25	-16	13
158	11	19	-28	14
158	10	13	-30	-6
158	7	17	-15	3
158	7	14	-13	17
159	5	14	26	2
158	1	21	48	-8
158	-1	19	-17	-10
157	1	19	-15	-10
157	2	19	35	-6
157	3	23	8	3
158	6	24	-8	3
158	5	22	31	2
158	4	14	63	10
158	5	13	10	14
158	3	15	-31	5
158	1	13	-8	-3
158	3	13	25	7
158	7	18	9	11
158	9	21	-11	12
157	5	20	20	14
158	4	19	40	8
158	4	12	34	6
158	6	17	-51	-4
159	10	22	-125	-15
158	9	23	-39	-36
159	4	13	8	-43
157	1	14	-79	-7
158	4	19	-75	4
157	1	13	0	1
158	1	14	31	2
157	4	15	43	-13
157	5	17	89	-5
157	5	18	94	-11
157	0	21	58	-7
157	-5	22	36	3
158	-19	21	-21	6
158	-10	19	3	10
157	4	17	10	13
157	5	17	9	13
157	11	19	24	-1
157	16	18	3	-6
158	24	20	-5	-5
157	22	21	-4	4
157	14	21	19	10
157	13	19	-5	14
157	11	19	-1	15
158	9	18	10	11
158	5	18	7	7
157	3	17	-8	-1
158	1	14	-28	-7
157	-3	11	24	-2
157	-6	12	80	9
157	0	15	56	4
158	14	24	-27	10
158	11	22	-40	10
157	-4	18	-12	4
157	-5	28	5	3
158	6	29	42	7
158	14	28	6	18
158	10	24	10	16
158	5	14	59	19
158	0	11	44	15
157	-2	11	8	6
158	0	14	-20	-13
158	5	16	-30	-33
157	8	21	-27	-25
157	4	15	5	-10
157	5	17	-19	6
158	7	24	-16	3
157	5	20	10	-6
158	3	17	-7	-16
158	1	17	3	-22
158	3	17	-8	-22
159	2	14	-16	-31
158	-3	13	-5	-30
158	5	14	42	-25
157	5	18	58	-7
157	-3	17	34	6
158	-9	18	-5	16
157	-8	24	-10	17
157	1	17	42	17
158	2	18	54	19
157	10	23	48	21
157	10	16	35	30
157	12	17	3	27
158	14	19	-8	13
157	16	18	21	2
157	21	19	9	-2
158	25	19	-5	-13
158	25	16	10	-4
157	16	19	-7	3
158	8	22	-30	2
157	-6	19	6	1
157	-10	19	20	-3
157	-3	17	-3	2
157	5	15	-7	-3
158	8	19	-50	-2
157	5	17	-39	-6
157	5	15	-60	-4
158	5	17	-75	-3
158	5	17	38	3
158	4	22	74	9
158	7	24	111	0
158	3	17	85	-6
159	-1	15	-1	-7
157	-2	19	-9	8
158	-10	21	-15	10
158	-24	18	-2	7
158	-25	17	-9	11
157	-7	17	13	16
158	3	17	19	14
157	14	15	-18	12
157	24	15	-22	7
157	38	18	2	4
157	44	19	1	11
157	29	24	-40	4
158	21	22	-43	7
158	19	19	-38	14
157	17	23	-19	15
158	8	21	20	11
158	-1	19	61	2
158	-2	19	86	9
157	0	18	73	3
157	-1	14	42	-20
157	-4	14	-6	-23
158	-4	18	41	-22
157	0	17	91	-37
157	-1	17	-26	-47
158	-4	15	-30	-27
158	-1	16	19	4
157	-1	17	-22	0
157	-2	15	-7	14
158	-3	13	-29	20
157	-3	17	-20	14
158	1	21	-11	15
157	-1	22	-17	-4
158	2	21	9	0
158	1	14	8	1
157	1	16	3	-4
157	10	24	25	7
158	16	21	54	9
158	10	19	85	7
157	2	16	89	14
158	7	22	-23	17
157	7	21	0	9
157	3	15	52	-10
157	5	22	-65	-9
157	6	22	-60	8
158	7	18	-39	6
158	4	19	-75	7
157	3	15	-49	7
158	5	14	-14	5
157	5	18	25	9
158	7	17	32	11
158	4	15	82	11
158	-1	14	125	12
158	-1	21	4	22
158	-1	16	-10	15
158	-4	16	33	0
157	2	22	-5	-5
158	11	24	6	11
158	14	27	0	22
158	15	24	14	24
157	8	23	5	25
157	5	17	-6	1
158	3	13	27	-17
158	0	12	51	-34
158	1	13	58	-38
158	9	14	-9	-25
158	15	20	-42	-32
158	8	20	8	-31
157	-8	15	-14	-29
157	-14	16	-28	-24
157	-4	19	-19	-21
157	1	15	-7	-26
158	0	21	-7	-23
157	-3	29	-10	-16
158	-2	23	30	-8
158	7	20	16	8
157	18	19	28	18
158	27	22	43	23
157	27	18	39	18
158	34	14	10	12
158	31	13	-30	25
158	23	14	-5	18
157	14	18	12	2
158	10	17	-12	15
158	9	19	-52	15
158	-5	17	-25	26
158	-11	20	5	18
158	-10	17	10	2
158	-13	10	49	6
158	-19	14	33	10
158	-14	17	-6	9
157	-4	15	-9	6
158	3	16	-15	20
158	19	15	-55	19
158	20	11	-28	9
158	20	19	9	0
158	21	27	7	2
157	16	25	21	11
158	11	21	22	17
157	10	19	35	7
157	10	17	19	7
158	7	23	6	-1
157	3	22	23	-11
157	1	19	13	-22
158	-5	18	-8	-22
157	-3	20	-10	7
157	0	21	-15	12
157	1	19	-8	11
157	0	19	25	3
157	0	18	14	-19
158	0	17	8	-49
158	-4	13	-12	-41
158	-3	15	-33	7
157	-1	18	-15	15
158	-2	18	-3	21
158	0	21	31	23
158	4	19	41	16
157	1	17	36	15
157	-4	19	2	2
158	8	22	-2	4
158	16	20	30	-14
159	10	21	41	-30
157	8	19	99	-18
158	8	19	101	-9
158	3	17	129	-1
158	5	17	122	9
158	5	16	58	19
158	4	17	65	21
157	5	19	23	11
158	5	21	6	-7
158	8	22	2	-13
158	6	21	-53	12
157	3	18	-67	22
157	4	13	-24	9
158	3	15	-21	22
158	5	17	-33	11
158	9	19	-56	-1
157	10	21	-49	-7
157	6	19	-20	-14
157	7	19	-26	-8
157	5	15	-20	-28
157	3	13	-36	-33
157	3	12	-11	-35
157	2	13	1	-32
157	6	17	-42	-12
158	13	19	-24	10
157	8	15	10	17
157	4	19	-19	14
158	7	18	-15	5
158	-2	19	27	1
157	-8	24	9	-1
158	-1	23	3	2
158	0	17	7	4
157	-1	15	-17	0
158	4	17	-19	10
158	8	17	4	7
158	22	19	23	5
157	26	25	39	17
158	17	25	47	17
158	11	17	58	18
157	10	15	49	18
158	5	11	22	8
157	0	10	31	11
157	0	17	25	16
158	3	18	40	16
158	1	17	50	13
158	5	19	-2	4
158	10	21	-12	-9
157	3	23	-5	-12
158	-11	25	-14	-3
159	-21	22	-11	7
157	-4	21	-1	16
157	4	19	-2	9
158	0	17	-45	12
158	3	19	-46	-2
158	-3	15	13	-18
157	-2	13	10	-15
158	1	13	43	-18
158	2	13	51	-6
158	7	16	10	2
158	10	21	-6	4
157	13	23	-23	6
158	18	25	-19	9
157	27	26	-11	8
158	34	19	-6	10
157	40	17	-36	6
158	30	22	-105	2
158	18	23	-103	2
158	12	16	17	-3
157	1	10	113	-11
158	0	17	78	-12
158	3	25	9	-6
158	1	19	85	12
158	-2	18	111	34
157	-6	16	83	32
157	-12	13	81	34
158	-10	17	21	32
158	-3	15	44	9
157	-2	14	31	-20
158	-3	13	12	-38
157	-4	14	18	-28
157	9	19	9	-44
158	22	19	6	-65
157	14	22	-19	-41
158	1	22	-3	-8
157	-4	17	-6	9
158	1	17	-13	18
157	1	17	-16	10
158	1	19	-27	7
158	0	20	-29	2
157	1	19	-29	-11
157	3	23	-16	-3
157	5	24	-10	-8
158	5	19	-5	11
158	1	17	0	24
158	-4	14	51	13
158	-8	6	90	10
158	-7	8	30	-2
157	-4	17	-104	-1
157	2	15	-119	-3
158	5	17	-41	-14
158	8	23	-51	-18
158	22	25	3	-12
158	23	24	34	4
158	15	25	8	11
158	11	24	0	18
157	10	22	8	11
158	5	19	40	7
157	4	18	15	9
158	3	22	22	24
157	7	18	38	33
158	5	17	40	28
157	5	18	31	31
158	3	15	-15	12
157	3	12	-14	-4
158	2	13	16	-10
158	0	13	-9	-2
158	3	17	-53	-6
158	3	22	-49	-8
158	-6	19	-20	2
158	-21	21	20	-8
158	-12	17	45	-6
158	5	18	83	-1
157	10	22	132	-11
158	13	18	63	-11
157	15	16	6	-13
158	23	19	-5	-4
157	30	20	-34	1
158	22	17	-22	-1
158	15	17	-22	2
157	13	16	25	0
158	8	16	46	17
158	4	18	29	30
157	4	19	46	11
158	1	21	1	-7
158	2	17	-33	-13
158	0	16	-3	-14
159	0	18	10	-8
157	1	16	38	2
158	3	19	50	-1
157	2	17	48	0
158	0	17	17	5
157	-1	22	-37	14
157	-1	22	-16	14
158	6	22	0	13
158	16	19	-4	16
158	9	15	1	12
158	2	14	30	8
158	4	10	58	-6
158	1	10	5	-6
157	3	20	-39	-5
158	7	23	-26	-6
157	6	19	8	-5
158	7	21	-6	-2
158	-1	21	-32	-2
158	-8	21	-23	0
158	-4	19	-23	10
157	-3	17	-26	6
157	-1	18	4	11
158	4	16	61	10
158	9	18	49	8
158	16	18	16	6
158	14	19	20	0
158	12	18	8	-1
157	7	19	15	-8
158	4	22	-10	-5
158	10	22	-57	-4
157	14	22	-51	3
158	12	19	-23	6
157	11	19	-11	4
158	10	17	14	2
157	5	16	68	-6
158	4	18	97	-7
157	3	19	58	-9
158	5	18	14	-7
157	5	19	37	-4
158	2	17	91	0
157	1	16	95	4
158	1	14	21	6
158	0	13	-99	9
157	-1	19	-99	7
157	-1	13	-24	-3
157	-3	12	-36	-1
157	5	15	-19	-7
157	8	15	3	-13
158	5	19	6	-6
158	5	16	12	-6
158	4	19	-1	6
158	-4	18	0	11
157	-8	17	-13	9
158	-6	17	-10	12
158	1	18	-6	15
158	2	18	2	8
157	-4	16	10	-6
157	-1	15	23	-17
157	14	17	34	-30
158	13	24	31	-15
158	8	21	27	5
158	12	19	18	12
159	10	16	29	10
157	14	16	24	-1
158	20	19	11	-8
158	20	17	8	-3
158	20	18	1	2
158	10	12	32	6
157	3	11	45	17
157	9	17	9	22
158	0	22	-24	23
157	-14	24	-25	12
158	-6	25	-27	-22
158	-3	24	-19	-35
157	5	23	-5	-13
157	15	21	-7	7
159	17	21	-3	10
158	22	23	-7	14
158	20	24	-8	4
157	14	24	7	5
158	6	15	58	6
158	4	16	69	-5
157	1	15	44	-1
158	-3	18	16	0
157	0	19	-15	-8
158	-1	17	-16	-12
157	-1	18	-26	-14
157	-3	15	-35	-21
158	-3	18	0	-6
158	-3	17	56	15
158	-4	15	70	17
157	-1	17	61	15
157	-1	17	35	13
157	3	21	-31	15
158	8	23	-30	10
158	3	18	2	6
157	2	19	-8	7
157	9	21	-13	7
158	10	19	0	7
158	7	22	9	7
158	3	19	10	4
158	3	20	8	3
157	8	21	-13	9
157	10	22	-5	4
158	7	17	21	-2
157	3	15	23	1
158	4	19	23	0
157	1	19	22	2
158	4	17	27	9
157	2	14	-12	12
157	-4	8	-46	-1
158	-5	14	-29	-9
158	0	18	-4	1
157	3	11	1	2
157	7	17	-7	0
157	13	16	-7	-4
158	14	16	1	-2
158	15	19	11	-1
158	13	16	-7	-3
157	9	21	-26	2
159	8	21	-8	3
157	3	16	24	2
157	5	15	57	4
157	5	19	50	4
157	10	18	19	2
158	8	19	28	1
157	6	19	52	8
157	5	16	54	8
157	3	17	61	2
158	-1	16	10	6
157	1	22	-104	15
157	4	25	-85	14
157	4	19	22	2
157	9	14	51	0
157	9	15	38	-3
157	11	22	13	-9
157	10	24	21	-22
158	8	22	13	-18
158	8	23	-69	-10
158	4	20	-98	-4
158	8	19	-83	10
157	9	15	-77	13
158	4	14	25	17
158	-2	17	142	30
157	2	17	116	22
158	0	22	94	-19
158	1	20	104	-51
158	5	21	14	-93
158	7	22	-2	-74
158	7	21	-7	-12
157	3	18	-11	-13
157	3	20	15	-6
158	5	19	36	3
157	5	18	57	12
158	6	19	4	23
157	6	17	3	17
157	7	17	-11	26
157	5	18	-10	20
159	2	17	-1	19
158	3	16	-11	19
158	1	16	-7	20
158	5	15	-42	15
157	8	17	-28	11
158	9	22	-19	13
157	8	19	-4	4
157	6	17	4	6
158	5	18	-12	18
157	8	19	-18	18
158	10	22	6	4
157	8	23	30	3
159	8	21	28	7
157	8	19	28	0
158	4	17	2	0
158	1	15	-31	20
158	-1	13	-34	22
158	-2	13	-3	12
157	1	15	6	16
157	0	11	39	19
158	-4	11	58	12
158	-5	16	24	-13
158	-15	17	24	-6
157	-11	19	9	-6
157	-3	18	2	-9
157	1	20	18	-16
157	9	23	-27	-26
158	19	22	-48	-17
158	25	19	-20	-10
158	18	17	-26	3
158	20	16	15	0
157	27	19	52	0
157	30	21	17	-3
158	25	26	10	2
157	14	26	38	10
158	9	19	40	12
158	1	15	20	14
157	1	14	-4	0
157	1	19	-13	-7
158	1	19	4	-14
157	3	18	6	-6
158	3	20	0	-1
158	4	22	0	4
157	-2	17	5	-1
157	-2	17	5	-14
158	0	17	-3	-11
157	-2	13	43	-8
158	-3	15	68	7
157	0	17	33	10
157	0	18	10	9
158	-5	14	6	2
158	-11	13	-6	8
157	-10	14	-24	10
158	-10	15	7	9
157	-3	14	79	13
158	4	11	49	13
158	10	18	-72	15
157	20	18	-57	10
157	22	19	9	-2
158	9	22	-16	-12
158	-5	19	-6	-22
157	-1	17	0	-24
157	5	18	2	-19
158	5	17	0	-10
157	9	19	-16	10
158	14	20	4	22
157	24	22	-1	38
157	22	24	28	41
158	14	24	62	37
158	11	14	54	15
157	8	7	-10	-13
157	5	11	-54	-15
158	-1	19	-1	-23
157	-8	21	13	-39
158	-3	19	-10	-46
158	4	19	-22	-52
157	3	17	10	-57
157	5	17	17	-28
158	5	21	-34	7
157	8	22	-24	9
158	11	19	-8	23
158	8	19	22	19
158	9	26	43	11
157	5	27	2	10
157	-2	21	46	9
157	0	15	62	7
157	-2	19	-1	-6
158	1	24	40	-5
157	1	19	25	-5
158	0	19	-13	4
158	3	21	54	12
158	4	21	43	23
158	6	19	5	33
157	0	22	7	38
157	-4	14	38	39
158	1	14	31	31
157	1	18	6	27
158	1	17	-4	10
158	4	19	-11	-4
157	6	18	-3	-6
158	6	20	-19	-13
158	8	19	-8	-12
158	5	17	-6	-8
158	8	21	-10	1
158	9	22	-7	12
157	6	16	6	7
157	4	14	13	2
158	4	15	3	-2
158	5	17	6	-3
158	4	15	6	0
158	7	15	-1	-2
158	7	14	-7	-7
159	8	15	-10	-13
157	7	18	-34	-10
158	4	16	-27	-1
158	7	14	8	-4
157	10	17	2	-6
157	8	20	5	1
158	8	20	55	3
157	5	15	123	4
157	6	15	81	4
157	9	22	-63	3
158	5	19	-88	-8
158	3	15	-49	-14
158	6	23	-89	0
157	5	18	-30	4
158	6	16	5	6
158	4	17	-32	9
158	4	16	-3	11
157	3	18	61	11
157	1	15	162	4
158	2	14	134	12
158	1	15	63	13
158	-3	18	46	8
158	3	19	19	16
157	12	18	53	19
157	15	19	3	15
157	11	21	-21	4
158	6	24	-9	-12
157	6	22	-31	-30
157	6	22	5	-37
157	9	25	-1	-34
157	7	24	37	-33
157	4	22	49	-9
157	2	19	18	-8
158	5	15	-12	-17
157	5	20	-82	-20
158	7	21	-53	-26
158	8	19	-20	-1
158	7	17	-37	6
158	4	16	0	11
158	2	19	-8	21
157	7	18	-39	29
158	1	12	-10	32
157	2	7	0	32
158	4	14	33	36
157	5	20	9	23
157	4	19	-9	4
158	2	21	13	-11
157	1	19	-3	-22
157	4	18	37	-18
157	7	22	37	-12
158	6	19	13	-12
157	8	14	3	-20
157	8	17	0	-25
158	8	12	0	-18
158	4	16	2	2
158	5	18	21	10
157	5	17	24	17
158	2	16	35	22
157	4	20	10	18
157	5	24	2	15
157	8	24	19	16
159	7	21	23	14
157	3	9	25	4
157	0	9	-20	2
158	0	18	-57	15
157	-3	15	-10	21
157	-12	10	85	9
157	-6	15	63	-1
158	0	16	33	0
158	6	18	36	12
158	8	20	-25	-2
158	14	24	-12	-3
158	18	23	0	1
157	24	22	2	1
158	20	24	20	7
158	15	22	17	0
158	13	22	21	1
157	1	20	6	-1
158	-23	19	-12	-3
158	-29	14	-22	4
157	-9	15	-13	14
157	-3	14	-6	12
158	2	13	-2	3
157	7	12	-5	-6
157	20	14	-6	-11
158	34	20	-7	-5
157	36	24	1	-5
158	32	24	55	-3
158	26	23	42	-1
157	25	24	-22	2
158	13	19	-32	1
157	4	22	-19	-1
157	-2	19	13	6
158	-2	17	32	7
158	4	21	24	6
157	5	18	5	12
158	6	15	-6	14
157	7	15	25	10
158	6	18	52	6
158	1	17	35	3
158	-3	17	14	0
158	-4	17	6	23
158	-2	17	-29	40
157	-2	17	-34	41
158	-4	14	26	33
157	-1	15	23	9
157	-6	17	-56	-37
158	-6	12	-91	-79
158	-6	17	-63	-80
157	-1	21	-18	-44
157	1	22	58	-28
158	-2	17	72	-16
158	0	17	65	-6
158	8	19	88	-9
158	11	22	54	-6
159	6	22	75	-20
158	9	24	53	-51
159	10	23	4	-74
158	5	19	9	-51
157	1	17	-17	-8
157	-1	14	-13	14
158	0	14	-11	24
158	1	15	-1	26
157	2	18	-23	30
158	4	26	-10	35
157	8	27	-2	32
158	5	17	-15	26
158	5	14	15	26
158	7	12	-18	26
157	2	8	36	24
158	3	9	102	17
158	1	14	57	10
158	3	23	-22	17
157	8	28	-31	14
157	7	16	-28	4
158	3	17	-102	13
157	9	25	-43	11
158	14	23	-11	8
157	8	17	-53	1
157	7	11	-3	-11
158	8	19	14	-7
157	9	24	46	-6
158	10	22	49	-4
158	3	20	20	9
158	7	18	17	10
157	7	19	14	9
157	6	19	13	8
158	4	19	9	7
157	2	19	16	11
157	5	21	9	14
157	7	17	21	14
157	5	17	4	10
157	2	17	-13	3
159	5	18	-8	1
158	5	18	-2	0
158	4	17	32	-2
157	5	17	70	-2
158	3	21	45	-3
157	7	23	-10	3
158	8	23	27	0
157	7	17	34	0
158	8	12	-44	10
157	9	18	-68	4
157	8	19	-41	11
158	3	16	-41	21
157	3	19	-32	28
158	3	18	8	34
158	3	17	35	39
157	1	17	53	30
157	1	20	32	14
157	-1	18	64	-20
157	-8	16	84	-57
157	-5	20	17	-62
157	-1	19	-4	-78
157	2	18	-7	-83
157	8	17	3	-22
157	16	19	24	16
158	24	21	29	11
157	17	14	13	0
157	9	14	4	-21
157	7	21	-7	-15
158	12	20	-22	-18
157	10	19	-2	-25
157	11	18	27	-30
158	12	18	16	-36
157	10	21	23	-27
157	7	17	49	-26
158	5	19	-17	6
158	1	20	-57	33
157	-3	19	-33	39
158	1	18	10	47
158	2	17	33	52
157	1	19	7	51
158	1	19	28	43
158	0	19	16	26
157	4	19	-4	3
157	7	23	0	-14
158	5	21	-22	-4
159	6	21	-33	14
157	7	20	-30	21
158	4	17	-8	16
157	5	15	-2	-3
158	3	13	6	-14
158	2	11	53	-20
158	0	11	112	-10
157	0	13	80	7
158	3	15	24	9
157	1	19	-10	4
157	3	21	-15	7
158	5	17	-3	15
158	7	19	-41	10
158	7	22	-2	-8
157	8	20	22	-5
158	5	19	-7	12
158	4	19	9	14
157	7	16	2	11
157	5	15	-28	9
157	7	18	-64	1
158	5	15	-58	9
157	5	16	3	20
158	6	14	39	15
157	2	12	77	9
157	0	13	85	15
157	5	21	8	18
158	8	21	8	4
159	3	19	35	-18
157	3	19	32	-39
158	1	21	44	-42
158	4	21	-10	-15
157	7	19	-19	17
157	3	21	-11	2
157	3	17	-14	-12
157	5	14	5	-11
157	10	18	23	-28
158	8	22	44	-44
157	8	23	-17	-42
157	9	30	-87	-30
158	6	26	19	-28
157	3	14	66	-8
158	5	23	-51	2
158	7	18	-7	20
157	5	13	2	43
158	9	21	20	29
157	4	15	34	22
158	1	16	-2	4
158	1	17	30	-15
157	1	15	-1	-10
157	4	18	-2	18
158	5	21	-40	24
157	5	17	-6	23
158	3	15	27	34
158	3	15	6	30
157	3	14	-13	25
158	5	20	-32	9
158	6	22	5	6
157	8	19	6	3
157	7	21	56	4
158	7	17	94	2
158	4	16	110	-10
157	2	17	30	-15
158	3	15	-38	-8
158	4	19	4	-4
158	6	19	-31	0
158	5	17	-27	4
157	5	19	-8	8
157	5	17	-12	2
157	3	15	-6	-10
158	5	15	1	-4
158	4	15	18	2
158	3	15	26	4
158	1	15	-1	6
157	4	18	-26	9
158	1	15	20	6
157	0	16	6	6
158	3	19	5	7
158	0	19	28	-4
158	4	18	12	-5
158	13	20	8	-7
157	19	21	-4	-5
158	10	14	12	-1
157	5	18	19	-4
158	10	18	13	-1
157	9	18	5	11
157	8	14	-16	8
158	5	17	-40	2
158	7	19	-30	-2
157	7	18	-12	-2
158	7	26	-57	3
158	7	23	-35	10
158	3	19	39	29
158	7	21	137	35
157	5	16	228	34
157	5	17	125	42
157	10	17	5	15
157	2	14	-73	-16
159	-2	15	-113	-47
157	-3	21	-39	-64
157	-5	17	-7	-54
158	-2	22	15	-47
157	5	24	5	-28
157	7	19	0	-15
158	1	16	2	6
158	3	18	4	-4
158	0	15	6	-32
157	-1	15	-25	-30
157	3	17	-10	-30
158	2	15	-11	-12
158	3	19	1	8
158	7	17	16	15
157	6	16	9	17
158	4	18	14	22
157	5	15	37	19
158	7	20	43	14
158	7	21	23	18
158	7	22	1	6
158	3	21	-31	-9
158	-9	15	26	-8
158	-7	17	45	10
158	-1	19	29	18
157	3	17	34	18
157	7	13	13	18
157	11	15	8	19
158	21	22	-36	22
158	27	22	-37	23
157	23	25	-17	25
158	15	24	-4	24
158	14	19	22	20
157	13	24	24	20
157	9	22	-12	20
158	8	18	-7	11
158	7	17	48	-4
158	4	16	-12	-23
158	5	23	-61	-32
158	3	19	12	-15
157	1	10	60	-5
157	3	18	52	-4
158	3	18	15	7
157	1	17	-15	3
158	3	20	13	2
158	1	19	-5	12
157	1	17	-9	11
157	0	21	-3	4
158	1	18	-12	11
158	3	16	-9	7
158	1	19	-49	2
157	3	18	-40	1
157	2	17	-15	-4
157	0	13	0	-11
157	2	15	-6	-9
158	8	19	6	-6
157	5	19	74	-11
158	5	17	72	3
158	5	19	71	15
158	5	21	43	6
158	3	15	35	-14
157	2	15	21	-20
157	5	24	-44	-22
158	5	21	5	-24
158	5	20	21	-23
157	9	23	17	-28
158	1	14	30	-14
158	0	16	14	-3
157	5	13	11	12
157	10	17	22	18
157	4	18	23	17
158	4	18	-11	19
157	5	20	6	19
157	7	22	13	17
158	9	18	19	4
158	5	15	26	7
157	7	16	-3	7
158	7	16	-16	4
157	4	15	-20	2
157	1	15	-28	12
157	1	17	-37	11
158	5	18	-29	4
158	5	19	-12	6
158	1	15	6	-16
157	3	14	16	-28
157	8	19	5	-24
158	8	21	6	-8
158	7	22	27	-4
158	14	21	12	-3
158	15	22	-9	-3
158	6	24	0	-7
158	3	19	-5	3
157	0	19	-3	0
158	-1	22	19	-1
158	5	19	47	9
157	7	15	67	20
158	5	13	44	16
157	5	17	52	22
158	4	17	65	37
157	2	17	59	32
157	3	17	35	31
158	-1	19	-87	23
158	0	25	-118	15
158	5	17	-50	-1
158	3	17	-37	-17
157	4	22	-9	-22
157	7	15	14	-23
158	8	19	22	-14
158	8	16	21	-12
157	7	17	5	0
157	4	16	16	17
157	4	9	14	22
157	4	15	10	19
158	5	21	-16	5
159	10	23	-36	-15
157	5	20	-12	-35
158	4	22	-21	-25
158	4	17	-31	-17
158	3	19	26	-13
157	3	17	100	-1
158	1	18	62	0
157	5	22	-4	9
158	7	20	0	8
158	5	21	25	6
158	4	19	16	3
158	5	18	-21	-9
158	5	18	-35	-10
157	8	22	-17	7
158	8	19	-1	7
157	7	21	25	3
157	3	19	72	2
157	2	13	55	3
157	3	14	9	4
158	2	16	-33	4
158	5	16	-24	13
158	5	18	-59	12
157	5	21	-99	9
157	6	10	-7	4
158	2	10	40	5
158	5	16	118	11
157	7	18	174	8
157	5	21	94	1
157	10	19	31	-9
157	5	20	21	-17
158	6	19	5	-2
157	4	17	3	26
157	1	16	-14	38
157	3	18	-12	42
157	1	13	-1	46
157	5	17	-28	41
157	5	21	-17	42
157	7	20	-7	25
157	7	18	16	-20
158	6	17	30	-75
158	7	17	2	-121
158	8	23	-21	-143
158	8	24	-14	-74
158	7	18	18	-29
158	5	15	0	-40
157	5	17	-23	2
159	9	21	16	14
157	7	19	34	31
157	3	17	3	34
158	3	15	-1	28
158	5	17	-19	36
158	2	15	-35	41
158	-4	16	-22	40
157	-7	17	-42	27
158	0	17	-73	35
158	3	19	-60	21
158	5	13	12	11
157	5	15	18	15
157	-6	18	20	4
157	1	18	45	-9
158	13	16	62	-23
158	5	14	132	-29
158	2	14	73	-25
157	5	23	-83	-4
158	18	30	-62	2
158	32	26	-55	2
157	38	30	-96	3
158	31	33	-16	1
158	12	29	68	0
157	9	24	127	-1
158	6	20	126	4
158	3	17	94	-4
157	1	13	9	5
157	-1	17	-13	19
158	1	16	17	27
158	-1	19	8	27
158	-1	19	9	10
158	-3	15	7	6
158	-1	14	3	-7
158	-6	14	-14	-6
157	-5	15	-1	-1
158	-1	18	-10	7
157	0	21	-24	16
157	-1	15	-8	9
158	0	16	-7	4
158	0	13	-39	7
158	3	19	-64	10
158	7	25	-38	5
158	5	18	-11	3
159	3	17	34	12
158	3	15	69	18
158	2	15	77	18
158	3	18	78	20
157	5	21	47	21
157	6	18	10	3
157	5	17	17	-7
157	4	17	9	-19
158	4	13	-4	-31
158	3	13	6	-45
157	4	20	9	-56
157	7	24	-2	-37
158	5	21	-2	-26
158	4	15	33	-2
158	2	15	17	19
158	2	17	-3	29
158	2	15	-35	51
157	4	18	-35	38
157	5	21	-4	13
157	3	17	-3	-21
158	3	14	6	-58
158	3	18	-33	-41
157	3	19	29	6
157	2	17	63	4
157	4	15	9	-11
157	5	14	6	-22
158	3	18	-26	-34
157	7	25	-22	-32
158	10	23	19	-25
157	11	22	-8	-6
158	12	24	-41	8
158	11	19	-19	16
157	7	19	-17	17
158	5	14	1	23
157	1	14	31	26
158	4	18	36	27
157	5	14	65	22
158	2	13	40	23
157	6	17	-13	26
157	5	18	-14	25
157	7	14	-15	29
158	7	16	-34	27
157	5	17	-16	26
157	4	15	27	24
158	3	15	48	9
157	3	16	20	-15
157	5	22	31	-35
157	8	24	69	-34
157	8	21	40	-30
157	4	19	-4	-16
157	10	22	-21	-6
158	6	15	31	3
157	3	17	27	14
158	6	17	3	17
158	7	22	-33	31
157	10	21	-34	23
158	3	14	14	15
157	5	20	-12	11
157	7	18	12	-5
157	8	21	6	-9
158	10	22	1	-16
158	6	19	-4	-32
158	5	17	-2	-33
157	6	17	17	-25
157	5	21	-7	-8
157	3	17	-15	-14
158	3	22	-46	-13
157	2	20	-37	-9
157	-1	17	-8	-4
158	1	19	4	14
159	5	17	15	8
158	4	14	22	13
157	2	19	49	23
158	5	16	56	23
156	4	14	77	23
158	8	21	94	9
158	8	21	96	-30
158	3	18	81	-37
158	3	19	-4	-5
157	7	17	-86	-3
158	6	16	-118	-13
158	7	19	-43	-4
157	0	16	71	-6
157	-3	16	56	-1
157	1	21	29	5
158	3	20	69	7
158	3	23	16	11
158	11	24	-33	21
158	20	23	-22	28
158	10	20	-49	22
158	8	19	-15	20
157	11	17	-33	21
157	8	17	-19	13
157	5	17	63	8
157	-1	22	20	20
158	-10	23	-20	24
158	-17	19	-14	19
158	-10	23	21	11
158	1	17	45	-18
158	15	15	27	-41
157	20	15	13	-51
158	28	16	-10	-46
158	37	23	-15	-21
158	34	24	-8	6
157	19	19	-6	8
158	12	19	-11	19
157	11	22	-7	19
158	7	16	-1	14
158	5	18	0	16
157	0	18	4	6
158	0	13	11	7
157	1	15	21	7
157	-2	13	24	11
158	-2	11	17	21
158	-4	15	-3	26
158	-5	16	-6	23
157	-6	19	2	14
158	-2	19	-2	4
157	0	15	-13	2
158	1	17	-24	-18
158	1	17	-2	-27
158	1	14	41	-14
157	-1	14	48	-16
159	-2	17	31	-8
158	-1	18	41	2
158	1	23	-33	16
158	3	25	-63	23
157	4	23	47	6
157	5	17	34	0
157	3	18	69	-16
157	2	16	96	-32
158	6	23	-15	-30
158	5	19	-18	-15
157	3	12	-28	-18
158	1	17	-34	-14
158	1	17	-13	15
157	5	19	15	32
158	6	17	33	29
158	3	15	35	15
157	6	17	51	0
157	8	22	3	-29
158	11	20	-16	-48
159	8	16	-28	-25
158	9	18	-31	5
158	11	14	-8	12
157	4	11	-5	17
158	8	17	-6	16
157	5	18	24	11
158	1	15	41	6
157	3	15	1	9
157	3	18	13	11
158	6	16	16	0
157	6	16	14	2
157	7	17	32	-4
158	7	22	2	-1
157	5	21	4	-2
157	6	19	0	-2
157	6	21	-10	6
158	7	18	-6	6
157	5	19	12	10
158	3	16	43	9
157	6	15	47	11
157	5	17	3	5
159	5	19	-51	12
157	7	15	-20	13
158	4	14	6	14
158	6	20	0	15
158	5	15	8	14
158	5	21	2	19
157	5	19	14	22
158	6	19	9	17
157	7	19	2	11
157	5	18	-10	10
158	5	20	-3	4
157	5	20	25	-3
157	4	19	46	-8
158	4	19	24	-15
158	5	22	0	-26
158	5	18	22	-30
157	3	19	5	-24
158	4	21	-29	-3
158	4	19	-68	-1
157	5	18	-22	1
158	8	19	41	4
157	4	16	18	-9
158	1	16	-14	4
158	5	23	-37	5
158	4	17	7	-14
159	3	19	28	-14
158	1	17	21	12
158	3	15	45	18
158	3	20	66	13
157	4	19	42	13
157	8	21	37	-1
157	8	24	48	-12
158	10	15	22	-27
158	7	13	11	-41
157	4	18	-19	-40
157	2	19	-5	-21
157	5	21	-15	-6
158	10	22	-30	-3
158	14	18	-14	-4
158	14	15	-20	0
158	5	14	0	12
158	1	18	24	19
158	-2	19	58	27
157	-9	14	40	40
157	-3	17	-32	47
157	7	25	-49	41
158	2	20	1	13
157	3	23	-15	-14
158	12	25	-6	-39
158	5	17	35	-38
158	7	17	41	-6
157	10	18	32	-3
158	10	17	2	10
158	10	17	18	21
158	8	16	3	22
158	8	17	5	26
158	7	16	12	22
158	4	16	6	19
157	3	13	21	11
157	4	17	19	6
157	5	19	42	12
157	5	17	52	12
158	6	19	30	-10
158	5	17	17	-35
158	7	17	30	-46
157	8	23	-15	-41
157	5	22	-65	-31
157	3	15	-67	-6
157	2	15	-88	3
158	1	19	-83	8
157	2	21	-22	20
157	5	22	-13	15
157	3	22	-5	5
158	2	18	46	-1
158	3	17	81	4
158	5	20	127	5
158	7	22	88	21
158	1	18	65	38
157	0	20	8	36
157	2	19	-50	37
158	2	17	-32	47
157	3	12	-66	63
157	5	14	-4	60
158	5	17	48	40
157	2	15	52	-17
158	4	19	22	-91
159	2	23	-30	-144
157	6	23	-12	-131
158	7	19	24	-95
158	3	20	10	-54
158	11	19	13	0
158	13	16	40	3
157	5	13	25	15
158	4	15	-14	25
158	5	19	-28	35
158	5	17	11	40
158	4	18	14	35
157	4	18	-15	33
158	5	16	-3	21
157	7	19	20	18
158	7	19	-2	8
158	4	17	-9	8
158	4	16	0	9
157	5	19	-24	7
158	5	23	-4	7
157	4	19	56	12
157	2	14	88	13
158	1	13	31	7
157	4	17	-51	4
158	10	17	-71	0
157	7	18	18	1
157	8	19	54	4
158	8	22	-39	-6
158	4	20	-35	-21
158	5	18	31	-29
158	4	16	25	-3
158	2	19	-10	24
158	5	19	-5	15
158	4	18	5	14
158	5	15	27	0
157	4	10	25	-4
158	4	17	-48	-10
157	8	23	-92	-12
158	7	22	-11	-9
157	7	18	69	-9
157	5	21	33	2
158	5	20	41	4
158	4	17	62	12
157	2	16	21	16
157	4	17	30	15
157	4	18	61	11
157	4	16	20	9
157	2	15	4	2
157	4	16	16	-7
158	3	15	-3	-13
158	3	17	-9	-10
158	5	21	-25	1
158	4	22	-21	0
158	5	18	4	3
158	7	20	7	0
157	9	21	15	0
157	5	21	19	2
158	5	22	7	1
159	9	21	-9	7
158	7	19	10	6
158	2	17	17	3
158	4	15	-11	15
158	3	18	4	25
157	-1	18	18	38
158	-6	19	16	43
158	-12	16	13	23
157	-10	14	-19	6
158	-5	18	-47	-5
158	3	21	-30	-17
157	5	19	-2	-16
158	12	17	4	-9
158	22	19	38	-25
158	22	23	50	-30
157	17	22	60	-29
157	14	17	60	-32
157	10	12	-30	-29
157	9	17	-80	-48
157	7	19	-55	-42
158	8	19	-10	-5
157	6	19	18	14
157	5	20	5	24
157	5	19	16	32
158	1	15	48	22
158	1	14	112	13
158	1	14	108	-4
158	3	19	54	-30
157	0	15	75	-32
158	-1	18	41	-3
157	2	22	-23	24
158	7	21	-37	18
157	10	17	-32	6
158	18	17	-26	-1
157	19	23	-15	-8
158	5	21	-25	-9
158	-4	19	-31	-10
158	-4	18	-38	-3
158	0	19	-49	0
158	1	20	-18	9
158	6	16	6	18
157	6	19	10	19
158	1	21	4	20
158	3	21	8	25
158	3	19	16	23
157	3	19	20	25
157	3	17	25	26
158	3	16	17	19
157	4	16	12	20
158	5	18	17	17
157	5	16	23	9
157	4	13	-2	0
158	4	15	-3	6
158	6	14	43	6
159	5	15	53	0
158	10	24	50	3
157	12	22	24	-2
157	4	16	-5	-11
157	3	14	22	-23
158	3	12	19	-22
157	8	22	-79	0
158	13	22	-55	-10
158	11	16	37	-22
157	8	21	6	-5
157	5	19	19	-3
158	3	15	15	4
157	5	17	-2	4
158	7	16	-23	7
158	8	18	-31	10
157	8	18	-25	11
158	7	19	-52	17
157	8	18	-24	7
158	5	24	-12	8
157	9	22	38	9
158	7	18	53	14
158	5	20	46	18
157	7	17	89	7
158	5	18	31	-10
157	3	18	14	-28
157	3	15	19	-32
157	4	16	-2	-17
157	5	19	9	-7
157	5	21	-4	-10
158	9	20	10	0
158	5	15	-2	12
157	3	13	-22	28
158	2	13	-8	28
158	3	16	-1	18
157	1	18	8	8
158	3	19	16	7
158	3	17	34	3
158	4	15	34	-4
158	7	21	3	-15
158	5	22	-47	-25
157	2	21	-43	-23
158	3	22	-38	-26
158	5	25	-67	-26
158	5	19	-1	-24
159	1	14	62	-8
157	3	15	82	4
158	5	17	105	12
158	4	22	73	25
158	2	15	28	26
157	5	14	13	31
158	1	17	1	23
158	1	18	-23	3
158	5	16	-15	-21
158	2	19	-15	-37
157	-1	17	-11	-21
158	-2	15	2	3
157	1	19	6	3
158	4	21	7	3
158	10	22	10	-3
157	11	20	23	-12
158	12	22	8	4
159	8	20	1	17
158	8	16	2	15
158	9	15	1	14
158	7	17	8	9
157	8	17	-2	3
157	3	15	-32	14
157	4	17	-44	13
157	5	15	-12	10
157	5	19	16	26
157	5	19	28	31
158	7	21	32	25
158	5	22	12	15
158	4	17	-6	-10
157	3	13	7	-33
157	4	17	29	-24
157	3	18	41	-5
158	5	16	32	0
158	5	21	-17	1
158	8	21	-18	2
158	8	19	26	1
157	4	18	5	2
158	4	20	-14	3
158	3	22	-31	5
158	3	19	-29	-2
158	1	19	-23	-15
157	3	21	-21	-19
158	5	19	36	-11
158	5	20	64	-4
158	5	19	65	-2
158	5	19	43	11
158	1	17	8	26
157	6	17	-17	29
157	5	16	-15	13
157	1	12	38	-7
158	3	13	56	-23
157	1	15	69	-26
157	2	19	61	-5
157	3	18	8	18
157	4	17	56	16
157	1	18	41	11
157	3	24	-54	8
157	8	26	-78	1
158	4	18	-58	-5
158	5	23	-67	-12
158	4	23	-57	-13
157	5	23	-5	-12
157	7	19	-2	-7
159	5	15	-24	-4
158	8	20	-78	12
158	8	15	-36	20
157	5	12	9	17
158	7	17	26	9
157	4	18	79	2
157	3	17	94	-2
158	9	15	105	-9
158	3	15	49	-14
158	3	18	19	-30
157	4	21	12	-37
157	4	22	-12	-17
157	11	24	12	6
158	16	24	21	4
158	9	18	16	9
157	7	16	10	21
157	5	15	38	26
157	4	15	15	23
157	5	19	-63	15
158	4	18	-56	14
158	8	17	-27	6
157	8	16	-23	-3
158	7	19	-18	-15
157	3	19	11	-18
158	1	15	69	-9
158	1	15	72	5
158	-2	18	35	21
158	-1	19	2	31
157	4	15	5	35
157	7	16	4	29
158	7	21	-23	17
158	5	17	-11	3
158	3	17	33	-13
158	4	19	74	-24
158	5	13	73	-29
157	4	14	5	-39
157	5	20	-37	-17
158	7	18	-23	4
158	5	22	-1	0
158	3	17	33	3
158	5	14	39	-2
157	5	20	-4	10
157	3	15	-23	4
158	8	21	-18	8
157	11	19	-24	7
158	8	20	-37	3
158	7	22	-23	17
158	5	21	20	17
157	4	22	20	24
158	5	23	15	25
158	3	19	46	26
157	2	14	52	9
158	2	15	17	-14
158	3	15	-69	-24
158	5	15	-66	-23
157	5	19	13	-7
157	6	19	21	-4
157	5	21	25	-16
157	5	19	38	-27
157	5	18	38	-21
157	4	17	42	-29
157	3	17	-3	-13
157	4	15	-28	8
157	6	13	-10	19
158	3	19	-34	29
158	4	16	-14	12
157	9	23	-2	3
157	9	23	5	-7
158	10	19	11	-24
157	6	19	15	-21
158	5	17	41	22
158	7	13	50	26
158	4	10	33	20
157	4	19	-43	31
158	9	24	-49	22
157	6	20	3	10
158	3	16	-13	3
157	8	17	-40	7
158	3	17	-45	-4
158	0	18	-22	-6
157	5	18	4	-8
158	5	19	36	-9
158	5	19	107	4
157	9	20	80	0
157	10	24	10	-5
157	7	17	9	-26
158	4	19	9	-30
158	7	19	52	-9
157	3	20	99	-11
158	4	22	108	-5
157	3	17	45	9
158	5	17	-52	11
158	5	14	-13	10
158	-1	14	-32	8
158	4	16	-52	11
158	1	18	-33	10
157	4	18	-71	3
157	5	18	-46	10
158	4	23	-45	15
158	5	18	-12	2
158	3	21	14	2
158	5	18	-23	8
158	5	16	5	5
158	5	17	66	4
158	3	14	45	9
157	5	14	17	13
158	5	16	42	14
157	5	17	51	11
157	5	18	20	16
158	7	20	31	19
158	7	20	51	14
157	7	23	27	7
158	3	16	13	-7
157	4	15	-30	-15
158	4	18	-12	-15
157	5	19	8	-9
158	8	22	-2	4
158	9	19	15	17
157	8	18	-2	25
157	7	14	11	9
157	4	15	34	-8
157	2	18	5	-30
158	4	19	-30	-50
159	3	24	-6	-65
157	5	22	-33	-77
158	4	19	-6	-52
157	3	18	57	-14
157	2	14	44	2
157	1	16	37	9
158	4	22	14	13
158	4	20	21	21
157	4	18	8	28
158	6	18	-10	29
157	4	19	-25	30
157	7	21	-45	23
157	8	17	-37	21
158	6	18	-38	23
157	5	18	-18	14
157	8	16	-10	7
157	7	18	-17	6
157	3	16	-2	0
157	-1	16	25	9
158	1	17	23	15
157	3	18	38	18
158	8	16	53	19
157	7	17	53	13
158	8	21	27	18
158	9	25	-15	11
158	5	20	19	-1
158	4	17	31	-8
157	7	17	28	-30
158	8	19	31	-34
158	8	24	-5	-8
158	8	20	-11	-5
158	6	19	-1	-4
157	3	14	-33	8
158	1	13	-34	-10
157	3	17	-29	-20
158	7	16	-65	-32
158	5	18	-50	-12
158	1	18	-16	8
157	1	18	40	-4
158	-3	20	78	-2
158	-3	21	59	-10
157	3	19	44	-9
158	14	21	35	-9
158	16	21	60	-7
157	3	17	38	9
157	3	15	-19	22
157	3	10	-30	31
157	1	11	-8	31
158	4	15	-10	27
158	4	15	-26	27
157	7	15	-16	14
158	8	16	0	2
157	9	22	39	11
157	5	24	50	15
157	0	23	54	2
157	-1	15	22	-1
158	-1	18	-51	7
158	4	22	-49	10
157	4	18	7	7
157	4	18	121	7
157	3	11	191	0
157	1	14	106	-4
157	5	22	-5	-18
158	3	23	-43	-20
157	4	22	-12	-17
158	2	22	-62	-6
157	3	23	-52	10
158	3	15	-42	3
158	5	17	-78	-3
158	7	19	13	-15
157	5	17	2	-22
157	8	17	7	-35
158	10	16	15	-34
157	10	16	13	-18
158	8	19	1	-4
157	9	21	-9	11
157	5	17	28	15
158	5	19	20	25
158	7	17	38	21
158	4	19	-1	15
157	7	21	-14	20
157	4	18	4	9
158	2	17	-18	11
158	2	18	-19	24
157	4	15	-30	32
158	5	15	-43	36
158	3	16	-36	18
158	5	16	-15	4
157	6	15	8	1
157	4	14	36	-12
158	4	18	66	-19
158	5	23	39	-10
158	7	21	-19	3
159	4	20	-11	1
158	4	19	46	-23
158	5	17	36	-35
157	3	17	0	-29
157	2	16	0	-8
158	6	15	6	-2
157	6	22	10	-11
157	8	23	5	-26
158	10	19	4	-25
158	6	19	-6	13
158	8	23	-1	20
158	5	24	14	16
157	4	20	6	15
157	3	19	22	-11
157	4	19	6	-22
158	4	20	-17	-8
158	4	19	4	0
157	5	16	15	-1
157	3	18	6	3
157	1	19	10	6
157	7	22	13	14
158	8	23	-2	18
157	7	17	-2	26
157	8	19	-12	34
158	6	17	-4	28
157	5	13	33	26
158	4	15	36	17
158	5	17	22	-7
157	3	13	26	-26
158	3	16	3	-14
158	5	17	45	-6
157	7	15	92	6
158	6	19	49	20
157	5	18	10	7
158	3	21	-21	11
157	4	22	-12	11
158	8	21	-19	9
158	7	21	-15	4
157	6	17	-3	-9
158	3	17	10	-25
158	5	22	19	-36
157	5	21	-8	-20
158	3	20	-11	-13
157	4	16	-21	-6
158	3	17	-12	7
157	2	16	14	0
157	2	15	47	4
158	-1	10	101	-1
159	-1	6	101	1
158	4	18	58	9
157	7	22	24	4
158	4	20	-8	15
157	13	25	-30	21
158	21	23	-28	23
157	15	19	-25	22
157	8	18	-24	28
157	9	19	-18	27
158	4	17	-10	20
158	0	17	-11	15
158	-1	13	-22	10
158	4	13	-23	-4
157	2	17	-5	-21
158	-2	14	2	-29
158	-3	17	-4	-36
157	-5	15	-2	-34
158	1	15	1	-22
158	10	16	5	0
158	20	26	3	11
158	23	28	-9	12
158	13	25	-7	25
158	8	23	-7	43
157	4	20	-6	45
157	3	18	29	39
157	6	14	54	21
158	3	15	54	-7
157	3	15	52	-25
157	1	16	49	-9
157	3	22	10	-7
157	8	27	-81	-41
158	6	24	-84	-54
158	5	21	16	-64
157	2	13	10	-46
158	3	11	-45	-48
157	3	16	-10	-40
157	1	17	36	-27
157	2	17	29	-13
157	7	22	-14	19
159	3	21	-42	20
157	0	17	-21	38
157	0	18	46	38
158	3	15	84	38
158	4	19	-14	36
158	4	26	-26	32
157	2	17	98	13
158	0	14	57	0
158	8	17	-10	-16
157	10	16	-22	-30
158	11	19	-43	-8
158	12	23	-2	10
158	12	22	17	21
157	8	15	54	0
157	3	15	40	-9
158	7	19	12	5
157	7	22	43	12
157	4	21	38	19
157	5	21	-47	32
157	6	24	-106	32
158	5	19	-24	13
158	3	17	27	-8
157	2	13	41	-19
158	1	12	32	13
157	7	20	10	41
158	5	18	31	39
157	3	19	41	31
158	3	18	60	25
158	3	15	52	19
157	5	16	43	-1
157	6	14	54	-39
158	3	10	21	-54
157	5	14	-60	-54
158	7	15	-51	-64
158	2	14	4	-35
158	7	15	34	-21
157	10	21	7	-20
157	9	22	-49	-6
158	6	19	4	-8
158	2	22	15	4
159	0	23	20	9
157	2	19	55	18
157	1	19	48	24
158	1	20	60	25
157	4	17	14	26
157	5	19	-24	32
157	9	16	-30	35
158	4	17	-59	22
158	4	18	-53	23
158	4	18	-60	26
157	4	21	-50	28
158	3	22	-23	30
157	3	17	12	27
158	5	19	33	28
157	2	17	26	32
157	2	19	23	39
157	6	29	10	33
158	9	21	9	2
157	8	15	3	-43
157	8	11	-2	-86
157	11	14	-3	-103
158	7	13	-8	-78
157	5	15	-28	-50
157	9	17	-40	-11
158	9	10	37	13
158	10	15	79	25
158	8	21	37	20
157	5	22	7	-2
157	4	25	-20	-13
158	8	22	33	-24
157	2	16	73	-17
158	1	14	-107	-5
158	5	22	-97	13
158	3	22	60	13
157	4	21	19	15
158	5	24	115	4
158	8	21	91	-15
157	8	20	13	-11
157	2	15	39	17
157	4	18	-33	35
158	4	15	-31	30
158	1	14	-60	36
158	3	19	-47	25
157	3	17	-20	24
157	1	17	17	12
157	5	21	69	-7
158	5	21	59	-40
158	5	18	62	-67
158	6	17	57	-47
157	6	18	59	-15
158	5	18	39	4
157	1	19	5	8
158	2	21	6	16
157	5	21	13	12
158	4	12	0	21
158	2	13	-31	28
157	4	15	-46	35
158	4	14	-8	34
158	3	13	-5	28
158	3	17	-11	16
157	1	16	-13	5
157	-2	17	-34	7
157	5	20	-21	-4
157	7	20	-20	-14
158	5	24	-16	-21
158	7	22	0	-24
157	5	21	2	-28
158	6	22	8	-33
158	15	21	33	-36
157	15	15	74	-25
158	10	13	34	0
157	4	21	-64	5
158	1	25	-36	8
158	2	19	39	11
158	2	17	1	11
157	3	19	-20	13
157	5	15	-1	12
157	2	13	-12	15
158	3	14	-4	21
158	9	20	29	28
158	10	24	51	37
157	10	22	55	37
157	9	15	56	23
158	6	17	0	-1
158	5	19	-7	-31
157	3	14	15	-41
157	3	13	6	-16
158	7	15	26	-10
158	7	17	37	-17
158	6	19	30	-7
158	7	19	15	4
157	2	15	19	19
157	3	13	21	41
157	2	14	0	57
157	2	15	-33	64
158	6	20	-53	46
158	0	21	-9	-4
157	-14	19	79	-72
157	-11	25	79	-133
158	3	27	6	-127
157	0	20	-7	-68
158	1	16	-33	-28
158	10	22	-74	-1
158	20	23	-34	23
157	26	18	42	31
157	27	19	94	31
158	28	20	24	31
157	19	21	-102	30
158	11	18	-68	15
158	5	14	29	19
158	5	12	20	24
157	3	17	-37	9
157	7	27	-52	10
157	8	25	-23	14
157	4	25	-3	14
158	3	23	36	10
157	-1	19	88	10
157	-1	15	116	20
157	1	14	95	26
158	2	17	11	28
157	3	17	-15	23
158	8	18	16	13
157	3	16	33	5
158	-2	13	20	10
157	-1	14	-39	13
157	-6	16	-38	2
158	-4	12	37	-20
158	0	14	38	-37
158	2	21	20	-47
158	1	20	19	-42
157	1	23	-39	-33
157	3	23	-45	-24
158	8	25	-33	-7
157	10	19	-6	1
157	5	17	46	7
157	5	15	38	17
158	4	14	22	22
158	4	15	40	32
157	5	18	39	31
157	5	26	40	27
157	9	23	48	32
157	8	17	-31	20
157	6	14	-95	4
157	5	13	-55	-17
158	2	16	5	-10
158	1	14	-32	3
158	3	17	-30	-22
157	5	20	19	-16
157	8	24	-34	-21
158	8	24	-42	-33
157	8	17	-36	-27
158	4	14	-51	-27
157	5	15	28	-6
158	2	13	88	-3
157	3	13	56	-2
158	5	15	58	16
157	5	13	77	-1
158	8	10	56	-10
158	7	18	-5	-15
158	10	25	-22	-8
158	5	18	29	16
158	1	14	-11	21
157	-3	11	-56	17
158	-4	14	-74	11
157	2	19	-65	14
157	3	15	-60	20
158	3	21	-66	23
157	4	21	22	11
158	3	15	78	9
157	4	17	154	22
157	13	22	144	17
157	14	21	47	12
158	12	24	8	-5
158	6	27	-37	-16
157	6	15	50	-23
157	5	15	99	-16
158	5	22	66	2
157	11	24	53	13
157	18	27	-44	25
158	13	24	-38	24
158	3	21	36	23
157	5	19	53	1
158	9	22	6	-18
158	8	24	-8	-22
157	4	20	-10	4
158	3	18	-13	30
157	0	14	-13	18
157	-2	14	-75	14
157	-4	11	-45	1
158	-5	13	-20	3
157	-9	17	1	-6
158	-9	17	-19	-8
158	-2	19	-55	-16
157	4	19	-18	-26
158	14	19	-70	-25
158	17	16	-70	-41
157	16	18	-4	-39
158	18	19	124	-48
158	15	18	221	-32
158	11	22	69	6
158	7	17	10	11
157	7	18	33	8
158	1	18	-17	11
158	2	17	-40	2
158	1	18	-82	7
158	4	13	-16	19
158	5	16	-16	35
159	5	18	-130	44
158	2	17	-51	50
158	-1	17	97	66
157	1	19	85	60
158	3	21	52	35
158	1	18	27	-11
157	5	19	19	-64
157	9	22	7	-74
157	5	23	-13	-36
157	8	22	0	-29
158	7	22	25	-27
157	8	23	67	-10
158	10	13	49	-15
158	3	9	22	1
157	3	10	-1	-1
158	-3	13	-23	-1
158	-5	18	-46	5
158	-3	22	-11	5
157	1	24	29	3
157	7	25	9	11
158	12	25	31	10
158	12	22	21	-9
158	11	22	16	0
158	8	17	7	31
158	3	21	-33	38
157	3	22	-14	43
157	1	14	1	39
158	2	19	34	13
157	4	24	72	-14
157	5	24	77	-30
158	4	19	34	-25
158	6	20	-39	-19
158	8	14	-18	-2
158	4	5	-19	9
157	7	9	-92	9
157	9	17	-98	13
157	5	14	-39	15
157	7	12	86	15
157	8	14	111	15
158	4	18	-1	22
157	4	15	4	17
158	0	11	105	17
158	4	15	92	15
157	9	17	-15	7
157	11	24	0	-15
157	9	19	-78	-9
158	9	25	-116	0
159	7	26	-22	-4
158	4	19	-124	1
159	5	14	-65	-4
157	4	13	87	-13
158	3	22	113	-22
158	5	17	19	-41
158	4	13	-73	-51
158	3	19	-7	-18
157	4	21	20	-2
158	-2	11	108	-5
157	-1	16	127	7
158	5	24	103	8
157	2	19	66	14
157	1	14	-48	10
158	11	14	-146	3
158	12	19	-164	16
158	11	19	-45	35
158	7	23	-1	40
157	4	14	141	45
158	2	11	232	35
158	1	17	151	25
157	2	22	62	-4
158	5	19	-42	-26
157	3	19	-109	-14
157	3	29	-169	-22
158	7	27	-41	-32
158	7	23	29	-51
158	8	21	6	-73
157	3	17	4	-46
158	1	18	-57	-4
157	2	22	-9	8
158	-3	19	-46	15
158	1	18	-49	19
157	5	22	-5	23
157	8	24	52	27
157	5	19	157	32
157	-4	13	182	30
157	-16	12	131	17
158	-10	16	-49	13
158	-2	13	-6	-2
157	0	17	41	9
157	5	20	8	27
157	8	17	20	28
157	14	14	19	28
158	23	15	93	10
157	25	21	68	-2
159	24	25	27	-6
158	20	16	-51	-42
157	18	9	-110	-79
157	15	9	-129	-51
158	24	22	-97	-16
158	15	22	-67	-18
157	1	19	-78	-3
157	1	18	-22	21
158	-6	18	-51	24
157	-1	25	-12	30
157	-1	22	50	37
158	-2	19	61	36
159	-4	15	63	30
158	-4	17	32	19
159	0	18	30	-10
157	1	17	-25	-30
159	4	23	-70	-11
157	3	19	-26	-24
159	-1	14	29	-33
157	3	19	40	-12
158	9	19	27	-6
158	8	18	-7	-8
158	8	18	2	3
157	10	17	-25	9
157	5	17	-4	6
158	3	12	15	21
158	5	12	31	3
157	5	11	137	-8
158	9	19	96	-2
158	12	19	10	1
158	8	19	-19	21
157	8	20	-26	24
157	1	12	-56	25
158	2	9	-58	22
158	5	13	84	5
158	4	22	189	3
157	5	19	125	-2
157	1	17	39	-1
157	2	24	31	2
157	5	25	-17	-3
158	4	22	-10	-6
158	-7	23	-13	3
158	-6	24	-25	7
158	11	22	-12	16
159	12	21	-28	11
157	-5	19	-6	4
158	-7	19	-18	7
157	-7	14	-1	12
158	3	14	-2	17
158	17	18	-25	15
158	11	18	-4	8
157	13	16	59	0
157	15	18	62	10
157	-8	22	-15	12
159	-3	18	-32	-5
158	4	18	-60	-18
157	-2	22	-88	-61
157	23	24	-28	-86
157	16	19	24	-47
158	7	15	40	-35
158	27	22	55	-36
158	38	19	50	-19
157	33	18	13	3
157	20	17	-17	28
158	14	18	-16	47
158	1	21	5	51
158	0	17	-52	46
158	-2	13	-99	38
158	-3	12	-80	15
158	-5	14	41	6
157	-8	15	218	-12
157	-7	21	180	-22
158	-4	24	35	-14
158	0	18	17	-18
157	-5	14	42	-2
158	-18	14	53	6
158	-24	15	-11	18
157	-4	21	-141	26
157	6	25	-72	15
158	3	22	2	14
157	13	17	-7	7
158	18	8	20	-25
158	25	10	-19	-42
158	19	18	-58	-29
157	14	19	-80	-20
158	10	20	-37	-25
158	9	24	32	-15
159	5	24	8	6
158	3	17	-7	13
158	3	21	52	20
157	0	26	107	24
157	1	21	75	27
157	-4	17	18	21
157	-2	15	-22	21
158	0	16	-54	10
157	-4	14	-44	-15
157	-13	17	15	-14
157	-22	19	2	4
158	-12	18	-1	6
158	1	19	22	-1
158	19	22	-11	0
157	26	21	29	-14
158	26	18	105	-27
157	24	18	121	-29
158	20	13	48	-8
157	13	18	-6	15
157	2	21	32	19
157	-5	12	26	29
157	-13	11	-24	23
158	-9	12	-59	11
157	-1	14	-65	14
158	-1	17	-10	11
158	4	16	15	15
158	5	19	-4	10
157	5	17	40	-2
158	11	18	17	-1
157	18	25	-60	-4
158	12	17	-49	6
158	8	17	-35	19
158	10	17	124	18
157	8	19	149	0
158	8	15	-95	-22
158	5	14	-54	-18
157	0	15	-44	4
157	3	12	-58	9
157	7	17	-13	15
158	7	23	33	18
157	10	22	163	18
159	9	21	80	23
158	5	21	109	16
157	5	21	145	15
158	-3	19	50	27
158	-36	14	43	15
157	-83	14	8	-6
157	-67	20	4	-36
157	-28	21	33	-79
157	-19	15	38	-95
158	13	13	-33	-56
157	40	22	-185	-4
158	66	28	-162	2
158	87	18	-30	9
158	77	13	-8	10
157	62	17	-47	3
157	50	26	-113	4
158	40	25	-62	0
157	29	18	17	-1
158	24	14	51	5
158	28	15	134	22
158	24	17	74	14
157	5	19	-6	15
158	-7	20	13	10
158	-29	16	-26	8
158	-57	17	-55	12
157	-35	20	-89	15
158	-3	18	-23	17
157	-14	17	30	13
157	-17	17	26	17
157	-4	13	39	20
157	5	13	-29	23
157	9	12	-8	12
157	1	13	38	-10
158	14	14	53	-11
157	43	14	-1	-10
157	26	25	-37	-25
158	-23	28	-18	-16
158	-51	28	17	-3
158	-63	23	77	10
158	-49	16	40	13
158	-8	20	16	6
157	19	21	17	5
159	38	11	-20	19
158	48	13	-63	22
158	57	15	-12	12
158	70	19	28	18
157	59	30	24	12
158	40	30	70	9
158	15	28	77	-8
157	-8	18	159	-36
157	-15	17	129	-41
157	-20	19	14	-42
157	-11	21	14	-16
158	-2	20	-20	-18
157	-4	15	9	-13
158	-5	13	51	-9
157	-8	7	38	-12
158	-13	9	-10	3
159	-22	13	-65	-6
157	-33	18	-90	5
158	-18	19	-101	-1
158	-4	20	-72	3
158	-1	22	-93	15
157	1	22	-96	20
158	3	22	-51	30
157	3	20	-5	28
158	13	27	65	25
158	16	21	188	16
158	11	12	172	10
157	7	18	-7	-2
158	5	19	48	-7
157	8	24	19	-11
157	11	23	-22	-22
158	9	13	49	-31
157	4	12	13	-32
157	3	11	25	-22
157	3	10	-32	-5
157	5	14	19	4
157	0	13	68	12
157	0	13	54	18
157	2	15	64	28
157	3	14	-6	37
158	8	22	-41	37
158	11	24	-36	40
158	10	19	10	24
158	5	14	-31	22
157	4	16	-130	39
158	7	22	-202	37
158	7	21	-110	3
157	10	22	8	-40
157	14	23	49	-68
157	12	22	55	-90
157	17	28	-8	-63
157	23	28	39	-33
158	12	23	63	-16
157	4	21	92	-4
158	3	12	22	2
157	5	14	-41	21
157	5	17	19	34
157	5	21	30	40
157	8	19	30	33
158	4	14	-1	21
158	4	15	25	19
158	11	16	33	26
157	12	9	47	9
158	8	15	49	0
158	8	24	-24	12
158	5	21	7	-1
158	-2	20	34	-14
158	-18	22	-41	-13
157	-37	18	-46	-2
158	-11	15	-25	-6
157	7	19	46	-7
158	-1	21	55	-8
158	10	15	-9	-19
157	11	14	-32	-6
157	-13	14	-38	11
157	-49	15	27	6
158	-45	17	58	8
158	-15	18	111	3
157	-6	22	72	10
158	16	22	25	11
158	30	17	27	9
157	42	14	-55	4
158	69	15	-52	-2
158	146	23	-48	5
157	148	22	-10	6
158	83	18	21	9
158	46	16	-17	4
157	-44	20	-13	4
158	-80	24	32	8
157	-75	23	34	3
158	-23	20	-5	1
158	68	21	-43	7
158	30	23	-62	2
158	-9	17	-61	2
158	1	15	-70	3
158	-16	14	-32	-1
157	-24	15	13	3
157	-15	15	70	4
157	-1	13	118	3
157	-24	9	78	2
158	-23	16	23	10
157	-19	21	128	10
157	-22	11	134	7
158	-8	20	1	12
157	-6	21	0	-9
158	14	21	-57	-41
157	-6	26	-44	-42
158	-15	24	-83	-27
157	-2	22	-162	-11
158	-15	14	-98	-8
158	-8	17	37	6
157	-3	15	126	28
158	-9	15	-32	41
158	-13	17	25	50
158	-9	12	126	43
157	-3	19	23	26
158	5	20	5	-13
157	14	24	-13	-36
158	5	26	5	-47
157	11	19	20	-57
158	27	19	48	-38
158	14	22	36	-23
158	-24	20	42	-10
157	-9	18	43	-1
157	15	18	8	-7
157	23	14	-12	-9
158	49	15	-96	-6
157	52	21	-56	-3
158	72	18	-6	2
157	72	15	7	8
157	53	17	52	14
157	37	13	98	6
158	1	14	26	19
157	-13	20	-65	34
158	-8	19	-15	34
157	-1	18	-13	41
157	-6	14	-40	20
158	-6	13	-19	10
157	-6	26	-8	22
157	-3	25	13	12
158	-5	19	66	8
158	-4	14	45	-4
158	-1	13	73	-24
157	-10	25	57	-18
158	-11	20	-5	-22
158	-12	13	9	-28
157	-12	16	-55	-14
158	-9	15	-36	-6
158	-14	17	-33	6
158	-22	16	-59	16
158	-12	18	-33	19
157	2	18	-27	25
158	15	17	-7	21
157	23	16	-44	18
158	18	15	-16	5
157	26	15	132	-3
158	14	21	232	4
158	-11	21	151	0
158	-26	14	129	-15
158	-21	20	65	-7
158	-1	29	-124	8
158	2	25	-67	-4
157	8	17	-49	-10
157	16	19	-15	-37
158	20	16	53	-37
157	30	17	-28	15
159	47	21	-87	35
158	46	20	-58	45
158	26	16	-5	45
158	13	17	3	39
158	2	19	25	35
157	3	19	0	27
158	-2	17	74	13
158	2	15	62	-40
158	11	15	-43	-85
158	8	21	-90	-87
158	7	22	-81	-56
158	5	16	65	-40
159	-2	16	29	-31
158	-8	10	40	-18
158	-14	14	53	-8
157	-9	21	-25	-2
158	6	13	29	-8
157	-12	15	51	7
157	-29	16	111	20
158	-37	19	23	31
157	-42	19	-8	40
158	-25	19	7	40
157	15	28	-40	35
157	58	25	-9	34
158	47	24	-51	31
157	66	25	-27	26
157	100	18	21	26
157	79	16	24	15
158	34	16	-12	11
158	14	15	-10	-2
158	-1	17	-7	-7
158	-54	24	44	3
158	-110	26	56	11
158	-82	22	59	17
158	3	18	92	13
158	-29	23	-8	4
158	-80	28	-1	-7
157	-68	18	1	-4
159	-32	16	-73	-8
157	10	17	-74	-9
158	37	16	19	-1
159	61	16	55	-9
158	67	9	16	-15
157	69	7	-58	-12
157	59	13	-18	-9
158	42	10	38	-4
158	25	17	-65	2
158	9	17	-1	1
157	-4	15	33	-6
158	-5	13	-4	-14
158	1	11	56	-10
158	15	21	39	-5
157	24	26	-14	-3
158	3	27	-49	5
157	0	23	-38	-1
157	-3	19	-40	-4
158	-16	17	-31	-1
157	-28	15	36	-1
157	-27	18	91	9
158	-12	16	6	23
158	-2	15	-57	23
158	8	13	8	17
158	10	9	25	4
157	17	8	74	-18
158	24	17	23	-14
158	23	28	-19	-3
157	11	20	56	-14
157	8	21	-2	-16
158	7	21	-65	-15
158	2	23	-85	-4
158	3	21	-13	11
158	-1	16	138	15
157	1	17	163	11
157	5	23	127	9
158	11	23	18	4
158	8	20	-182	-2
158	8	27	-217	-14
157	4	25	-118	-31
157	0	18	52	-30
157	-4	11	190	-25
157	-11	11	141	-5
158	-5	16	70	12
157	-8	15	38	10
157	-9	22	72	17
157	21	24	54	15
158	26	17	25	10
157	12	12	23	18
158	15	13	-21	21
158	3	21	-44	30
157	3	23	-42	39
157	12	21	18	35
158	6	22	89	31
157	29	23	100	32
158	44	25	-9	19
157	5	25	-67	-16
157	-2	24	-62	-50
157	15	17	-93	-44
158	20	21	-59	0
158	5	22	-15	9
158	-13	11	-1	-9
158	-7	7	-10	-19
158	-18	9	-2	-38
158	-7	16	-21	-47
157	-12	23	-50	-23
158	-15	18	12	-6
158	-6	17	30	-23
157	-4	16	-2	-9
157	14	10	-24	-2
158	18	11	-67	14
158	22	18	-49	30
158	22	26	12	30
157	16	25	126	23
158	0	19	147	18
157	0	24	65	26
158	-3	25	62	23
158	-4	15	36	13
157	-3	10	40	-13
157	1	19	-25	-21
157	7	22	-56	-9
157	4	19	35	3
157	10	17	56	6
158	6	16	13	9
158	-4	17	-101	19
158	-49	21	-132	24
157	-67	18	-45	26
158	-13	19	-8	26
158	12	17	14	19
158	38	14	41	6
158	105	12	6	-9
158	141	14	-16	-22
158	121	22	-9	-7
158	66	19	1	7
158	-13	15	-26	-4
158	-63	15	29	-11
158	-110	16	180	-4
158	-105	22	112	9
157	-5	22	31	16
157	1	17	72	20
158	-5	15	-11	11
158	-5	19	-118	1
158	-29	20	-119	-4
158	-17	17	6	-8
159	-5	22	107	-18
157	13	18	105	-26
157	21	24	108	-26
158	33	21	84	-35
158	28	15	21	-28
158	17	15	32	-11
157	9	12	-16	-14
158	15	13	-78	-10
158	21	21	-58	13
157	16	23	-44	17
158	19	17	29	19
157	5	21	-56	23
158	17	22	-90	8
157	19	21	-5	9
158	-29	17	-3	20
158	-87	14	74	9
157	-82	17	21	9
157	-32	22	-34	18
157	24	22	-55	22
157	67	18	-128	18
157	94	14	-43	0
158	127	10	-20	-21
158	136	11	-46	-31
157	169	12	-37	-21
158	132	8	78	0
158	23	16	225	-1
157	12	26	161	-4
157	48	17	123	21
158	58	16	133	39
158	-93	22	84	42
158	-123	11	88	36
157	-70	11	32	18
157	-163	15	-66	-9
158	-208	12	-80	-38
158	-235	15	-96	-44
158	-130	28	-140	-29
158	-35	25	-111	-22
157	-16	25	-61	-21
157	8	24	12	-10
158	17	22	71	0
158	63	19	96	-8
157	78	8	61	-3
157	88	21	-83	9
158	73	26	-97	6
157	45	17	-25	8
158	19	16	64	9
157	15	22	23	12
157	22	25	-90	8
158	21	24	-63	12
157	32	19	-32	16
158	22	15	0	11
157	23	14	43	4
158	24	18	110	-5
157	17	19	91	3
157	1	18	25	2
158	-8	21	-22	18
158	15	21	-67	28
158	17	25	-27	16
157	8	19	58	13
157	11	19	117	0
157	5	24	145	-5
157	7	23	38	-6
158	5	22	-70	-18
158	3	25	28	-23
158	5	22	59	-9
157	8	18	53	-4
158	9	10	-24	1
157	9	4	-67	-6
158	11	11	1	-10
157	13	16	-21	-4
158	10	19	-7	7
158	11	21	-3	16
158	8	15	37	7
157	-1	14	49	11
157	-5	21	25	21
157	-5	17	-5	17
157	-8	14	-44	20
157	-3	20	-20	13
157	5	19	-13	-10
158	4	15	14	-19
158	8	18	21	-26
158	14	19	2	2
158	26	13	-3	20
158	75	16	-8	16
157	59	19	-3	15
158	-14	24	-18	-7
157	-45	24	-21	-8
157	-96	12	-12	-31
158	-113	13	-9	-30
157	-69	19	20	-21
158	36	21	58	-30
158	79	17	42	-12
158	59	17	21	-2
157	81	23	21	4
158	49	26	58	17
158	31	23	64	26
157	-22	18	-13	34
157	-37	19	-47	52
159	-23	19	-79	37
157	-27	15	-31	8
157	15	10	29	-16
158	54	15	-16	-54
157	52	23	0	-77
157	-1	23	21	-35
158	-12	24	35	5
158	3	26	52	3
158	-4	20	45	18
157	36	15	31	16
158	137	17	-16	19
159	145	15	-56	11
157	82	14	-63	8
158	20	19	-7	9
157	-63	16	66	6
157	-149	14	144	14
158	-175	21	53	13
158	-100	24	-41	14
158	-24	21	-21	4
158	-2	18	-82	-9
158	-27	21	0	-4
158	-16	22	46	6
158	-6	26	106	-6
158	1	26	98	1
157	-1	27	-121	9
158	-13	20	-143	2
157	9	21	-144	9
158	7	22	-149	14
158	18	14	-137	4
157	12	11	-28	-13
157	19	11	241	-8
157	29	17	271	0
158	24	18	128	7
157	32	15	86	1
158	22	9	20	4
158	20	8	-30	9
157	10	12	13	7
158	7	12	-27	1
158	0	15	-53	-6
158	-47	19	8	-3
158	-36	24	14	-4
157	10	27	-34	0
157	-2	24	1	3
157	18	19	33	2
158	30	17	-32	3
157	38	15	10	4
158	46	13	137	4
157	31	17	141	8
158	38	19	56	18
158	46	17	-17	23
158	89	22	-71	12
158	77	16	-57	1
157	24	14	-9	0
158	15	13	62	-3
157	-35	13	56	-12
158	-72	19	13	-17
157	-44	22	-33	-17
158	4	22	-80	-4
158	-11	20	-77	4
157	-39	17	-62	-11
157	-32	21	29	-9
158	-62	17	121	14
158	-31	10	132	24
157	-11	14	23	21
157	-4	14	-36	18
158	9	15	-26	19
158	18	19	-15	14
158	50	18	89	1
157	55	9	78	-10
158	45	22	-36	-19
158	30	31	-141	-32
158	27	19	-131	-25
158	16	19	-35	1
158	12	25	-21	18
157	10	13	-46	26
157	17	20	-23	11
158	13	18	18	-41
158	-2	14	7	-85
157	2	19	-45	-89
157	-7	15	-72	-68
157	-11	18	1	-34
158	-44	16	46	6
158	-93	19	83	8
157	-62	18	99	16
157	-18	19	58	23
158	-4	17	111	18
158	38	15	111	27
158	64	15	33	27
158	89	14	-3	20
158	87	15	0	14
157	56	19	-11	31
157	32	23	-26	35
157	-2	19	-4	34
157	-9	19	-20	23
158	-9	19	-61	22
157	-8	22	-80	25
158	-7	20	-90	20
157	-8	19	-113	17
158	-12	21	-83	12
157	-20	13	56	14
158	-24	12	189	10
157	-21	15	141	11
157	-14	14	148	12
158	-5	18	178	10
158	8	18	61	0
157	16	18	26	1
158	28	19	32	2
157	30	20	42	-21
157	23	19	1	-23
157	14	19	-56	-14
157	1	22	-124	-12
158	-9	21	-106	-8
157	1	23	-17	-1
157	20	22	-17	9
158	10	19	49	12
158	5	19	124	13
157	-2	15	115	7
158	-14	15	25	-9
157	-14	18	-57	-15
158	-18	21	-131	-11
157	-12	19	-138	-16
157	0	23	-112	-7
157	8	24	-9	-9
157	5	15	144	-7
158	6	13	73	6
157	7	11	-55	14
158	11	18	-17	33
157	12	21	49	24
157	11	21	-15	24
157	14	24	-32	15
157	9	26	5	7
157	7	22	2	5
158	9	17	19	-27
158	8	17	-9	-59
157	1	16	-87	-73
158	-6	23	-106	-60
157	-10	15	-77	-22
159	-8	11	-67	0
157	-1	11	24	-3
157	2	19	121	-1
157	9	22	167	-4
158	12	17	177	5
157	29	25	85	9
158	30	27	-11	5
157	17	26	-51	13
158	13	19	-91	25
157	14	20	-63	29
158	16	15	39	30
158	12	12	154	23
158	-4	14	216	7
158	-16	13	186	-8
157	-17	15	120	-12
157	-10	17	-24	-10
158	5	18	-66	-5
157	13	21	-67	2
158	-9	21	-43	8
158	-20	17	-4	22
157	9	17	1	26
158	27	17	-19	16
158	69	17	-35	12
158	73	14	22	-11
157	2	14	10	-37
157	28	21	4	-32
157	20	29	-57	1
158	-28	24	-125	15
158	-54	15	-110	10
158	-46	17	-42	21
157	63	9	112	29
158	37	19	101	27
158	11	28	16	31
158	-5	22	4	31
158	-48	22	-36	20
158	9	19	4	4
158	24	15	-19	-18
158	24	8	-42	-25
158	13	17	-23	-23
157	5	18	14	-17
158	-7	12	58	-10
158	-32	13	2	-18
158	-37	15	17	-18
157	-38	15	31	-9
158	-44	11	21	-1
157	-35	11	-121	7
158	-9	25	-213	16
158	1	25	-22	8
158	8	23	74	0
157	20	25	35	-4
157	30	14	62	-8
157	34	13	104	-1
158	40	24	132	6
158	44	21	75	10
157	38	20	2	15
158	21	26	20	16
158	10	24	-35	11
158	4	22	23	9
157	-7	19	89	4
158	-11	20	-7	-4
158	-1	24	-101	1
158	1	28	-89	7
158	-21	24	65	10
158	-18	15	115	17
158	-11	14	66	17
158	14	13	-11	-1
157	31	6	-9	-16
157	15	7	-58	5
158	38	20	-114	12
157	48	22	-20	7
158	20	14	17	7
157	-12	18	119	-6
157	-34	18	107	-4
157	-13	17	9	2
157	17	19	53	-2
157	14	22	33	6
157	11	18	39	7
157	15	14	36	-3
157	19	19	-15	-4
159	26	14	-8	-1
158	30	19	-10	-15
158	23	17	-4	-31
158	6	13	-23	-38
158	6	19	-36	-20
157	9	26	-58	11
157	-3	25	-30	23
157	-4	21	8	23
157	-2	17	-18	8
158	1	11	-7	-8
158	2	14	-36	-37
158	-2	17	-41	-37
157	-1	24	-16	-7
157	-1	19	20	2
157	-4	12	38	12
157	-5	17	22	11
157	-4	22	25	5
157	-3	20	-12	-20
158	-5	17	-27	-22
158	-3	17	-32	13
158	-1	19	-18	7
158	-5	19	-15	-1
158	-5	15	6	5
157	-5	13	56	10
157	1	15	29	7
157	1	13	48	-12
157	-1	14	-8	-8
157	1	24	-19	23
158	4	19	83	30
157	0	14	54	17
157	-1	17	25	17
157	1	14	5	13
158	5	13	-52	15
157	5	16	34	13
158	4	17	34	11
158	4	17	-40	-3
158	4	24	27	-6
158	8	24	-15	-6
158	8	22	59	-14
157	10	21	201	-12
158	5	15	144	-19
158	8	21	8	-4
157	15	22	-45	2
158	10	14	33	6
158	2	16	-8	20
158	-8	15	-32	22
157	-19	14	-24	23
158	-44	21	-41	24
157	-72	14	-44	23
158	-26	19	-82	21
157	20	24	-105	23
157	28	18	-44	19
157	78	17	82	12
157	150	17	142	-4
158	190	10	178	-11
158	125	8	48	-32
157	66	19	-102	-44
158	7	22	-69	-26
159	-92	26	-56	-6
157	-157	24	-18	1
158	-124	22	21	7
157	-14	24	27	13
158	-12	17	51	19
158	-10	19	41	11
158	-3	25	72	-1
157	-12	21	72	10
158	-14	19	36	21
157	-20	18	19	31
157	5	15	-57	25
158	8	15	-79	11
158	12	14	-89	15
158	20	14	-135	-2
158	27	14	-46	2
157	30	17	-4	-9
157	24	14	10	-55
158	14	19	-12	-73
158	1	23	-54	-87
158	1	20	1	-70
158	17	24	-14	-28
157	3	19	16	-6
158	-15	20	19	-2
157	-3	19	42	9
158	1	14	80	16
157	26	19	38	17
157	29	25	-7	15
158	30	22	24	18
157	29	19	102	20
158	3	16	73	17
158	17	19	-10	32
158	27	22	-34	33
157	7	15	42	21
159	-6	19	-21	19
158	-14	20	-83	14
157	-21	23	-82	19
158	-15	22	-96	14
157	-6	17	-29	13
157	25	17	19	15
157	90	13	97	6
157	92	14	156	10
158	120	15	141	11
157	191	18	80	5
158	61	16	30	-2
158	-66	6	30	-2
158	-84	9	37	-15
158	-65	19	63	-26
157	-147	25	72	-3
157	-227	28	-49	4
157	-94	27	-108	3
158	-37	28	-64	3
157	-29	25	-79	-6
158	-22	19	8	-6
158	-21	21	20	-8
158	-14	21	1	-9
158	-8	17	49	-10
157	22	14	43	-1
157	30	13	53	6
158	47	16	-39	-9
157	40	21	-80	1
157	34	17	-12	28
157	30	18	55	23
158	27	17	98	7
158	24	23	20	3
158	21	24	8	-24
158	19	14	-10	-36
157	15	13	-40	-22
157	17	10	-32	1
157	15	16	-51	8
158	16	19	-34	8
158	11	16	-25	7
158	15	19	-18	-5
158	18	22	21	-17
157	18	16	107	-41
158	12	11	104	-37
157	8	12	53	-11
158	9	15	59	21
157	7	21	-10	23
158	8	19	-31	20
157	4	14	-15	14
158	5	17	-68	4
158	5	19	-62	15
157	4	12	-21	21
158	10	18	5	37
157	11	21	9	24
157	6	19	-10	11
158	5	17	-69	-8
157	0	12	-86	-21
158	1	15	-37	-15
158	7	19	-20	-5
158	8	18	2	-5
158	5	21	21	-14
158	7	27	-39	-8
158	7	25	-46	-13
157	-18	9	61	-2
157	-72	9	65	2
158	-67	17	102	8
158	-15	15	163	0
158	-4	15	188	-10
157	23	23	96	-1
158	45	17	6	4
158	62	18	52	8
158	80	29	10	11
157	64	23	1	15
158	51	14	-21	14
158	24	16	-60	4
157	1	19	-52	7
157	3	21	-99	10
158	5	24	-37	4
158	-3	19	192	2
158	-3	18	201	10
157	-2	20	27	14
157	-1	20	64	18
157	1	18	55	20
157	-6	14	-48	19
157	-6	20	-111	25
158	-7	26	-129	20
157	-9	22	-89	10
157	-16	12	9	-17
157	-15	17	29	-41
158	-18	23	-25	-18
157	-29	19	-12	-4
158	2	18	-51	-18
157	58	15	-42	-12
158	61	17	-23	-10
158	24	14	-11	-6
157	-3	18	-1	-1
158	-47	18	11	-2
158	-110	9	84	-1
157	-134	9	85	-2
157	-24	24	85	-1
157	84	36	39	7
158	66	34	3	14
157	73	29	-18	8
157	29	23	-94	4
158	-10	18	-69	2
158	15	16	-18	-6
157	23	16	-13	-9
158	38	17	-11	-1
157	16	16	9	10
158	7	17	35	15
158	6	12	25	14
157	1	13	6	11
158	7	14	1	10
158	-4	16	-45	6
157	-1	26	-48	0
158	11	25	-46	9
157	9	22	-87	16
157	-9	18	-26	12
157	-10	14	38	10
158	-9	15	68	4
158	-7	14	99	2
158	-2	11	125	6
157	-1	12	133	4
157	5	14	47	6
157	14	11	37	-19
157	22	13	146	-35
158	16	25	93	-20
157	14	26	-112	-20
157	13	27	-129	2
157	9	15	-61	16
158	4	15	-50	10
157	1	22	-39	4
157	0	16	-44	-1
158	2	19	17	4
157	1	15	46	8
158	-1	15	40	19
157	0	15	17	23
157	-1	13	-17	9
158	1	11	13	-8
158	4	21	-11	-7
158	4	19	-10	-29
157	1	13	62	-59
157	6	19	77	-65
157	1	17	102	-61
158	-1	18	24	-45
158	4	21	-96	-28
158	10	22	-39	-4
159	11	22	12	12
158	8	18	186	21
158	3	19	214	46
157	-35	23	-30	52
158	-90	19	-72	43
157	-65	8	-128	19
158	-19	15	-135	-2
158	-3	24	36	13
158	39	15	54	16
157	61	17	5	19
157	91	15	65	28
157	101	16	77	21
157	79	18	-63	21
157	57	19	-112	10
158	16	22	-70	-3
159	-2	16	-27	-20
157	3	17	28	-23
158	-3	18	87	-15
158	-3	15	122	1
158	-2	21	116	19
157	-5	24	57	3
157	-3	21	-14	-9
158	-7	17	-47	-20
157	-7	15	-108	-11
157	-2	21	-75	-22
158	-8	21	30	-40
157	-12	17	12	4
158	-10	24	-1	24
158	-4	22	5	20
158	-2	14	-37	20
157	-20	13	-24	6
157	-29	14	-26	8
158	-11	19	-37	6
158	7	25	-45	9
158	4	22	-40	14
157	-1	19	5	16
157	-3	19	36	11
157	0	14	33	14
158	19	18	15	15
158	34	21	7	13
158	30	20	-12	15
158	17	24	-11	6
158	16	24	16	8
158	14	21	16	8
157	12	17	43	17
157	15	10	14	31
158	17	13	-16	22
157	26	21	43	9
158	18	22	39	-7
157	6	21	89	-19
157	0	19	125	-19
158	-13	14	112	-12
157	-20	18	53	0
158	-11	16	-66	0
157	-6	11	72	-29
157	-6	5	255	-36
158	-1	9	99	-10
158	7	27	-51	-20
157	15	20	-1	-31
157	10	21	-86	-2
157	-8	25	-111	-21
157	-28	21	-105	-37
158	-28	23	-146	-28
157	-13	19	-123	-25
157	5	19	-63	-9
158	24	17	-24	-1
157	27	10	-19	1
158	33	14	81	0
158	36	19	43	7
157	19	24	8	10
157	13	26	62	12
158	15	25	70	15
158	9	27	55	8
157	5	26	9	14
158	1	19	7	7
157	-3	10	20	11
158	-4	9	23	20
158	-14	18	-33	17
157	-5	19	-62	34
157	24	14	-55	22
157	10	10	-58	13
158	-5	15	-42	4
157	-9	19	6	0
158	-18	13	85	8
158	-51	15	68	1
158	-21	18	85	7
157	91	23	84	8
157	66	25	7	1
158	16	26	-1	2
158	14	29	-62	-8
158	12	19	-145	-15
157	12	18	-104	-6
158	-5	19	80	9
157	7	18	127	14
158	-2	19	57	15
158	-1	19	106	5
157	-9	13	46	-2
157	-12	7	52	4
158	6	11	27	14
157	2	13	-44	2
158	-2	11	3	-10
158	-3	13	-40	5
158	2	14	-53	4
158	2	16	-40	3
158	3	19	-2	10
158	22	21	6	16
157	22	21	26	21
158	9	21	26	14
158	6	19	-44	-1
158	-14	20	-41	-23
158	-24	17	-67	-31
158	-28	13	4	-3
158	-31	17	25	17
157	-27	17	-3	18
157	-8	19	69	26
157	40	19	36	8
158	59	19	2	2
157	46	24	10	2
157	38	19	43	-10
159	27	17	64	-20
158	9	13	91	-23
158	4	17	82	-17
157	7	22	61	-22
157	-1	19	42	-30
158	1	15	-25	-37
157	-2	13	-81	-14
158	0	19	-108	-4
157	1	17	-18	-9
158	-3	18	29	-4
157	-3	18	68	7
158	2	22	28	7
159	3	16	32	-1
158	-2	13	90	4
157	2	21	-22	10
158	4	15	38	11
157	4	16	30	-27
157	5	17	-37	-54
157	7	22	-10	-28
158	9	27	4	1
158	7	21	-18	0
157	8	21	-27	10
158	6	24	-30	18
158	3	23	-81	20
158	4	22	-15	18
157	1	19	23	13
158	-1	15	35	14
157	2	19	20	18
158	-2	17	28	35
159	2	19	39	54
157	5	21	13	64
157	2	12	48	59
157	4	8	5	66
158	4	10	-26	40
157	4	17	52	7
157	1	13	116	27
158	-2	9	19	14
157	2	18	-129	-13
159	7	29	-151	-22
157	7	22	-131	-38
158	8	16	-70	-46
158	12	22	2	-43
156	11	25	24	-37
157	3	23	52	-43
157	3	18	41	-71
158	6	22	19	-88
157	13	26	-59	-72
158	11	23	3	-49
158	8	20	81	-23
157	5	18	65	8
158	1	10	143	9
158	1	13	13	22
158	1	21	-37	32
158	4	22	-26	36
157	9	22	-50	53
158	9	21	16	58
158	8	19	-16	60
157	4	15	-1	46
157	1	13	19	32
158	5	19	47	14
158	6	19	29	-13
157	4	17	46	-6
158	7	14	56	-2
157	11	15	-23	-8
158	11	20	-44	-13
157	11	20	-69	-13
158	10	22	-113	12
157	10	22	-112	22
158	8	17	-38	15
158	6	17	55	11
157	7	21	136	10
157	8	22	70	1
158	4	17	8	-20
157	3	17	135	-15
157	5	16	146	-1
158	0	17	19	9
158	0	15	146	14
157	1	13	195	18
158	3	16	38	10
158	0	11	17	8
157	2	15	-24	23
158	3	21	32	33
157	5	19	-2	36
157	22	28	-102	24
157	24	30	-71	8
157	8	21	-51	-36
157	0	24	-53	-66
157	3	29	-45	-45
158	6	17	12	-49
157	7	18	-9	-56
158	0	16	-12	-26
157	-2	15	18	-12
158	-12	18	-11	-11
159	-25	15	-69	-1
158	-54	13	-69	10
157	-100	17	-52	8
157	-80	19	4	3
157	-43	14	58	11
157	-5	17	7	16
158	65	21	12	23
158	103	23	-2	24
157	127	25	-43	24
157	135	20	-18	14
157	112	19	25	15
158	72	18	3	24
158	34	16	-3	22
158	7	22	-1	19
157	-11	25	0	10
158	-19	21	43	11
157	-22	18	33	7
158	-20	15	33	4
158	-17	14	32	11
158	-7	18	21	-6
157	-4	16	27	-21
157	-4	14	57	-31
157	-3	15	66	-47
158	-1	19	28	-35
158	2	19	-13	-12
158	-1	17	-40	-9
158	-3	12	-63	-1
157	17	11	-106	17
157	28	17	-86	21
158	5	18	4	18
158	1	17	69	-4
158	-5	12	92	-30
159	-14	10	71	-59
158	-13	11	71	-45
157	-5	15	32	3
158	-34	18	-49	22
158	-60	15	-84	25
158	9	12	-66	8
158	12	6	52	3
157	-20	16	88	11
158	-1	19	16	14
158	-19	8	41	21
158	-40	11	46	15
157	-75	10	29	2
158	-51	9	-43	-17
158	45	18	-56	-4
158	64	30	112	8
157	46	36	57	-2
157	26	32	3	16
158	18	25	77	12
158	24	24	13	18
157	13	21	28	26
158	17	22	10	35
158	9	17	-22	28
157	9	16	75	17
157	12	19	105	3
157	6	15	45	-30
158	-8	17	-7	-14
157	-53	16	-71	2
157	-86	22	-141	0
158	-45	23	-170	3
158	-6	18	-162	-1
157	9	19	-92	-19
157	45	18	-33	-2
158	70	22	58	10
158	94	26	178	8
158	89	21	112	19
158	74	19	34	16
157	50	24	96	2
158	16	18	128	-16
158	8	16	52	-7
157	5	13	-12	-2
157	-1	12	10	-4
157	3	17	-33	3
158	11	20	-80	7
158	2	22	-64	4
158	1	19	-59	6
157	-1	18	-34	4
158	-7	18	-73	-4
158	-34	19	-71	-2
157	-56	17	11	-10
158	-54	17	-24	-19
157	-43	21	-52	-30
158	-13	20	25	-36
158	0	20	-26	-21
157	23	23	52	-13
158	56	17	167	6
158	71	11	117	17
157	41	14	147	4
158	8	18	64	14
157	13	22	23	23
158	13	20	-61	26
157	30	26	-124	32
158	39	26	-3	23
158	45	20	19	17
157	9	24	-6	0
157	-11	19	-73	-9
158	-33	16	15	-8
159	-96	5	51	-2
158	-56	11	47	8
157	5	17	95	4
158	34	14	22	-6
157	30	17	3	-8
158	14	19	-7	-13
158	-5	25	49	-15
157	-36	16	95	-8
159	-69	19	64	-11
158	-89	22	-6	-13
158	0	19	-28	-4
157	42	18	6	7
158	18	22	-35	23
157	25	22	-51	18
157	-6	13	-83	16
157	-1	16	-91	22
157	12	13	-15	8
158	4	14	-68	4
158	17	19	-65	-1
157	15	15	124	-25
157	14	19	43	-16
157	-2	21	-68	9
157	-50	16	-48	9
158	-49	14	-49	-2
157	11	11	66	-5
158	22	12	31	-4
157	26	23	58	7
158	33	20	109	15
158	47	15	94	16
158	72	19	89	19
157	57	16	10	21
158	26	14	14	15
157	20	19	-38	13
157	29	18	17	10
157	16	18	52	0
157	8	26	-54	2
158	-17	24	-102	0
157	-14	26	-90	-6
158	3	26	-23	-32
158	19	21	73	-45
157	39	22	79	-8
157	17	24	5	9
157	10	16	35	4
157	8	15	-26	-6
158	-8	18	-35	-4
158	-17	15	63	4
157	-10	14	81	-18
157	-11	12	65	-25
157	-13	17	5	-11
157	8	23	-12	-8
157	5	19	-59	-8
157	-15	17	-112	-8
158	-12	15	-58	0
158	-2	18	-9	2
158	-10	19	-12	-8
158	3	17	-29	-10
158	27	16	-11	8
158	23	24	-29	17
158	2	18	-68	21
158	15	15	-59	17
158	17	14	13	11
157	70	10	43	12
158	111	21	102	10
158	29	23	107	16
158	0	17	95	0
157	-6	18	146	-2
158	-41	19	25	-4
157	-94	14	158	-12
158	-75	13	146	-6
157	1	19	-6	-6
158	-5	25	25	-4
158	9	19	-30	1
158	-17	21	44	4
157	-59	19	31	10
159	-68	17	6	14
158	-46	21	4	16
158	-36	7	-26	21
158	-85	6	1	19
158	-32	18	21	22
158	35	18	-54	17
157	67	23	-189	23
158	109	23	-74	16
158	110	11	100	-3
157	108	25	27	-1
158	80	31	-37	4
158	48	17	-18	11
157	33	19	-115	0
157	-10	23	-148	-7
157	-22	17	-84	-3
158	3	17	-35	0
158	43	13	36	-6
159	164	19	56	-9
157	199	21	95	-14
158	92	19	50	-11
158	72	22	-17	-2
157	-34	19	-7	13
158	-149	17	-1	11
157	-212	4	85	-6
158	-233	-1	150	4
158	-81	6	99	15
157	-35	20	4	13
157	-16	31	-19	5
158	-37	30	-20	-13
158	-60	31	-32	-43
157	-29	29	-10	-49
157	-18	23	32	-34
157	15	16	47	-15
158	4	18	16	2
157	24	21	24	-7
157	16	14	16	-4
157	22	13	-47	9
158	29	15	-38	8
157	23	19	-5	7
158	29	17	12	11
157	22	15	29	9
157	30	19	-39	3
158	22	19	-108	2
157	23	15	-49	-2
158	18	21	-4	7
158	22	21	21	6
157	23	15	62	1
157	18	14	90	4
158	16	15	102	2
157	53	15	7	3
158	126	16	-47	13
158	134	19	-13	30
158	47	18	-13	21
158	-53	17	16	4
158	-69	14	39	9
159	-142	16	6	16
157	-194	15	-25	28
158	-56	13	54	16
157	88	13	101	-7
157	133	20	-15	-25
157	75	22	-27	-51
157	24	26	-29	-18
157	-15	25	-90	23
157	-29	28	-102	19
158	-32	26	-55	13
158	-22	19	15	2
157	-9	22	139	4
158	-7	11	243	-6
158	34	22	111	-12
158	117	22	-18	-9
158	172	14	-82	-10
158	104	15	-42	-4
157	61	19	6	-5
158	5	19	44	-12
158	-86	10	149	-8
157	-174	7	169	0
157	-177	14	45	4
157	-37	17	-68	7
159	-33	19	-100	0
158	-26	29	-178	4
157	22	31	-131	16
158	13	21	-125	25
158	41	17	-79	17
158	46	21	-27	2
158	28	14	94	-3
158	-11	12	251	-2
157	-29	25	33	12
158	-5	22	-19	14
158	21	21	37	6
157	36	22	0	12
157	18	18	12	2
157	7	18	-59	-1
158	16	21	-77	-7
157	-4	17	1	-4
157	2	14	56	3
158	16	19	63	0
157	24	13	117	2
158	35	10	79	-18
157	23	18	2	-23
157	23	19	43	-19
158	18	15	72	-15
157	8	19	47	2
159	-7	24	-55	18
157	-20	18	-121	32
157	-16	10	-130	26
158	-1	11	-122	10
158	3	12	-1	3
158	5	10	125	19
157	19	18	42	3
158	63	25	6	-11
157	93	18	-10	-18
157	7	19	-132	-18
157	-44	18	-55	-13
158	-41	17	7	-20
158	-91	22	74	-5
158	-81	18	123	-11
157	23	17	157	0
157	98	20	118	2
157	75	17	13	4
157	32	16	47	6
157	-37	15	-1	13
158	-73	16	6	17
157	-20	15	-10	17
157	8	15	-23	36
157	-18	21	-23	28
158	-33	25	-31	31
157	-49	29	8	29
158	-32	30	-42	5
158	-5	23	-50	-33
157	-1	16	-84	-68
158	36	15	-132	-78
157	52	16	-109	-38
158	75	18	-46	6
158	74	20	17	7
157	64	16	116	8
157	31	9	188	7
157	-13	11	161	2
157	3	14	144	16
158	2	19	102	20
157	7	17	20	13
157	16	19	-31	17
158	36	16	-33	3
157	43	13	-81	-7
158	36	29	-87	-2
157	31	30	-50	-18
157	2	19	-62	-30
158	-6	20	-68	-12
157	-8	24	-15	21
158	-19	18	136	13
157	-16	12	72	15
158	13	19	-67	21
157	9	17	7	7
158	-11	21	-32	7
157	-17	14	-32	11
158	-27	9	46	9
158	-20	14	122	-6
157	-11	14	69	15
158	1	22	-123	16
158	4	18	-100	15
158	-18	17	-115	20
158	-37	23	-49	10
158	-34	23	52	14
158	-28	24	74	3
158	-1	20	24	4
157	73	18	-30	6
157	226	13	101	-8
157	271	11	-3	-8
158	148	11	33	7
157	55	20	150	15
157	-43	23	55	11
157	-167	17	97	-2
158	-337	18	72	-18
157	-308	19	15	-28
158	-96	26	25	-36
158	-93	24	-23	-29
158	-43	21	-28	-16
158	-15	24	14	2
157	24	24	37	14
157	163	23	40	21
158	128	14	-39	6
158	127	3	-87	-6
157	86	15	-148	7
158	-13	29	-176	-1
158	-70	17	27	-5
158	-39	15	163	-6
157	39	19	167	10
158	-5	17	154	11
159	-3	16	42	17
157	-3	16	-27	18
157	24	15	-21	-8
157	45	12	-58	-8
157	33	19	-37	-5
158	58	25	-36	-8
157	18	26	-63	-15
158	-18	21	-20	-9
158	-34	13	7	-12
158	-30	14	60	-4
159	-50	17	14	7
157	-40	16	-59	8
158	15	18	-64	15
158	24	21	-75	13
158	58	21	-45	8
158	79	19	11	10
157	58	17	93	9
157	43	26	73	11
157	40	33	32	29
157	30	26	45	35
158	28	17	49	41
157	34	19	32	29
157	29	23	-19	-1
158	35	21	-39	-12
158	24	13	-57	-16
158	4	13	-9	-2
157	4	12	49	8
157	-4	10	18	-10
158	-19	17	-28	-17
158	-14	22	69	-28
158	-4	17	179	-29
158	-24	17	-88	-21
157	-22	17	-94	-22
158	-3	9	61	-24
157	40	15	-54	-26
158	102	13	14	-25
158	82	12	55	-38
158	5	18	14	-29
158	-60	19	-29	0
158	-61	14	27	7
157	-82	9	36	23
158	-68	20	-65	25
158	44	25	-19	15
157	70	21	6	8
158	67	25	-4	17
157	-38	27	-15	26
158	-85	23	20	21
157	20	23	38	18
158	-105	16	40	13
158	-155	16	40	10
157	-78	22	37	12
157	-27	21	35	13
157	-13	24	-25	15
158	-8	24	-51	17
157	5	17	-82	7
158	-2	16	-116	11
157	22	19	-23	20
158	19	15	93	18
157	45	16	99	17
157	36	14	117	14
157	39	17	102	13
157	44	19	24	10
157	30	13	-25	4
158	25	14	-44	0
157	4	12	27	-8
159	11	4	74	-29
157	4	12	37	-55
158	-6	20	13	-51
157	6	17	40	-24
158	25	22	60	-19
158	32	17	28	-21
158	45	15	25	-13
158	44	9	-1	-13
157	55	14	-10	-5
157	54	19	-8	4
157	25	23	-12	16
158	35	29	9	19
157	-2	26	-24	11
158	-23	27	-31	14
158	-1	27	-27	21
158	-15	30	-19	10
157	-18	31	3	11
158	-4	21	19	17
158	-7	12	24	18
158	-24	13	-11	15
158	-17	14	-11	-8
158	19	16	-74	-8
158	79	29	-148	4
157	124	22	-60	1
157	90	17	0	-1
158	57	23	4	-4
158	3	18	-8	-2
157	-70	21	-56	-4
157	-117	17	-54	-1
157	-101	19	12	7
157	12	17	127	4
158	13	13	145	16
157	4	15	23	11
157	-52	17	14	7
158	-90	13	40	-2
158	-39	15	10	-5
157	-22	13	22	12
158	26	9	20	2
157	38	17	-1	-5
157	117	21	-35	-5
158	193	20	-52	-8
158	169	19	-106	-7
158	97	17	-106	-6
157	-31	13	58	-14
158	-170	18	253	-9
158	-218	23	231	-2
157	-160	11	104	8
158	-66	9	10	22
158	24	22	-20	16
158	58	21	60	14
157	48	22	-17	19
158	33	22	-22	13
157	20	20	-43	9
158	19	21	-97	-1
157	10	12	-32	-14
157	5	16	-6	-13
158	18	15	-6	-26
157	18	14	-48	-26
158	18	18	9	-17
158	18	24	12	-7
158	11	22	66	1
157	-15	17	107	0
157	-37	19	49	2
157	-10	18	4	-4
157	1	15	-44	0
157	5	10	-39	-7
157	22	16	-101	-5
157	32	26	-82	12
158	54	25	-60	21
157	53	21	-29	24
158	41	18	8	25
157	22	23	17	15
157	-4	27	60	-1
158	-4	22	85	-20
157	-1	17	129	-32
158	-5	17	117	-8
157	-8	15	71	6
158	-19	10	31	6
158	-23	9	-42	12
157	-24	19	-48	0
157	-23	18	104	0
158	-3	18	125	10
157	-1	14	17	7
157	-36	10	6	3
158	-72	14	-37	-4
157	-14	19	-100	-2
158	50	26	-86	-6
157	94	22	-88	-2
158	154	18	-117	8
158	120	21	-62	7
158	111	19	-12	8
159	49	22	-25	7
157	-64	23	3	9
158	-134	19	31	9
158	-99	19	42	9
158	3	17	40	10
157	6	22	20	10
158	13	24	18	7
158	-33	23	4	6
158	-35	20	9	6
157	-20	18	10	4
158	15	18	16	3
158	102	13	33	-2
157	57	14	52	7
158	96	15	30	9
157	169	16	-2	6
158	65	14	40	-4
158	-24	12	38	-9
158	-28	14	9	-3
157	-126	14	0	-3
158	-278	21	-11	-3
158	-254	27	3	-3
158	-52	27	17	-10
157	23	26	32	-10
158	-9	23	60	6
157	7	24	65	10
158	13	24	24	5
158	44	19	-43	9
157	40	17	-63	2
157	39	17	-51	-11
158	43	19	-65	-10
158	40	19	-43	4
158	50	17	-11	-1
157	54	13	-57	-8
157	44	14	-26	-12
158	31	19	122	-20
157	39	24	117	-6
158	32	17	62	0
158	36	19	45	-12
158	32	25	-11	-5
157	22	21	4	9
157	15	17	35	11
157	1	18	83	4
158	-9	11	9	15
157	-52	12	-41	23
158	-62	23	-1	14
158	-29	19	-17	4
157	-25	17	-35	2
158	-15	17	-19	2
158	3	21	41	2
158	21	17	5	9
158	55	14	1	10
157	74	9	33	8
158	77	8	77	-2
158	48	20	42	-6
159	20	18	-65	-15
157	18	22	-68	-17
157	8	22	-44	-5
157	-11	18	-6	0
157	-41	23	-47	6
158	-60	23	-56	2
157	22	22	-19	4
157	98	21	12	8
157	63	17	71	8
157	46	19	53	8
157	22	19	45	10
158	-36	15	50	5
157	-82	13	26	-2
158	-29	15	-11	-4
158	-2	17	-24	-6
158	-59	18	2	-6
159	-38	17	18	-4
157	-54	19	-9	0
159	-47	21	13	-2
158	-16	18	40	4
158	-31	17	34	-2
158	-1	13	55	-1
157	9	16	15	13
157	26	16	-11	8
157	34	17	-7	2
157	39	17	-1	-1
157	45	15	23	-9
157	62	17	-7	-5
158	96	24	-29	4
158	43	22	21	4
157	27	21	32	4
157	14	22	-7	10
158	-43	14	3	5
158	18	13	30	9
158	121	11	28	7
158	72	9	4	0
158	-55	11	-11	-5
158	-102	15	5	-9
157	-128	19	-37	5
158	-126	21	-70	3
158	-96	19	-14	-8
157	6	30	-26	-1
158	46	30	-29	6
158	-27	25	2	9
158	-58	26	30	3
158	-78	21	81	9
157	-23	21	82	3
157	7	25	17	-11
157	46	25	-2	-7
158	85	19	94	-9
157	80	15	111	2
158	85	13	9	9
157	58	15	-98	16
158	46	18	-105	4
157	37	14	-64	7
158	41	15	-15	12
158	36	10	26	1
157	41	9	56	8
158	12	9	107	-1
158	-10	10	17	-18
158	-17	15	-23	-25
158	-66	24	-49	-14
158	-79	25	-6	-5
158	-51	19	71	-6
158	82	20	16	-10
157	127	21	13	-10
157	65	26	-7	2
157	26	24	25	5
158	-28	20	8	14
158	-8	19	-1	8
158	-6	20	17	9
157	-3	15	-5	7
158	22	10	-13	7
158	21	18	-94	18
159	16	17	-83	7
158	12	17	72	7
158	3	15	146	2
157	-27	15	10	4
157	-30	14	5	6
157	39	16	12	4
157	151	21	-47	9
158	118	18	-8	9
157	69	14	-22	2
158	-15	6	-1	-8
158	-181	5	-3	-8
158	-248	5	15	-1
158	-221	15	26	5
157	-103	22	20	1
158	-42	21	35	6
157	-12	30	38	3
157	32	37	83	-8
157	66	39	70	-11
158	107	38	28	-2
157	101	39	8	-3
158	49	34	1	-15
158	12	29	-38	-13
158	0	26	-51	0
158	-27	21	-36	11
157	-16	16	-63	1
158	1	4	-81	-8
159	15	-11	-77	3
158	44	-25	14	4
158	53	-9	119	2
158	18	12	89	17
157	-25	17	52	14
157	-79	5	74	17
157	-74	-10	6	21
157	-16	15	-48	8
157	-12	29	90	0
157	89	27	105	-9
158	162	45	-64	-6
157	145	45	-48	-6
157	112	45	-34	-7
158	60	48	-20	2
157	49	36	15	-4
158	6	32	-7	-6
157	5	26	52	-8
157	58	19	11	-1
158	38	21	-37	6
158	-65	16	-28	-1
158	-102	12	-14	-3
158	-101	14	-26	0
157	-155	9	6	-1
157	-101	9	63	-1
157	34	11	9	6
158	52	10	28	3
158	52	9	36	1
157	82	-4	24	7
157	60	-8	10	13
157	-4	5	-13	21
158	-39	11	19	20
157	-20	16	-5	15
158	-27	21	-10	4
157	-12	15	-20	-11
158	13	25	-45	-25
158	30	41	-49	-13
157	18	38	-19	-4
158	4	30	41	-16
158	1	30	45	-13
158	0	25	28	-4
157	91	19	38	-2
158	151	17	38	1
158	65	13	-15	8
157	22	11	-29	5
157	-56	8	-15	-2
158	-192	9	-16	-6
157	-212	11	30	-2
158	-140	19	45	0
159	-19	34	-1	11
157	0	28	9	10
158	-7	22	17	9
158	-4	15	25	2
157	3	9	45	-4
157	36	18	29	-1
158	42	17	24	6
158	57	18	34	12
158	50	21	31	9
158	37	16	-26	15
158	19	14	-37	12
158	8	13	-11	7
158	5	15	7	6
158	-7	13	17	10
158	-40	18	33	3
157	-91	21	65	-1
158	-32	16	49	0
158	18	15	-24	2
157	8	17	-77	11
158	37	11	2	-2
157	80	17	30	-2
157	162	29	-13	2
157	201	22	2	-7
157	148	18	28	-15
158	107	21	64	-21
158	43	17	60	-18
158	-25	18	-14	-13
157	-50	26	-71	1
158	-60	27	-10	-9
157	-3	25	-19	-1
158	4	23	-90	10
158	-37	15	-27	4
157	-69	11	1	5
157	-56	8	-18	-4
158	13	8	-22	-2
157	27	17	-30	6
157	43	17	-15	19
158	27	14	-2	19
157	8	9	13	21
158	12	9	49	11
157	-1	21	59	4
158	-24	24	36	-2
157	-67	11	30	-10
158	-82	1	23	-5
157	-43	15	12	-6
157	104	28	23	1
158	192	26	42	10
157	96	25	36	12
158	56	12	23	-1
157	-37	4	2	-3
158	-227	5	-23	-5
158	-243	30	-21	-13
157	-101	48	-15	-7
158	-40	39	8	0
158	-97	23	27	4
157	-56	6	29	9
157	-67	-9	7	12
157	-19	-23	-5	8
158	53	0	38	3
157	36	29	60	-1
157	63	43	23	-4
158	62	40	4	-2
157	67	14	-6	7
158	5	26	-26	3
157	-33	68	-15	3
157	14	83	-23	15
157	-15	58	-8	10
158	-9	45	7	1
157	40	29	5	4
158	47	17	5	-6
158	77	20	12	-15
158	103	15	29	-3
158	178	10	46	-1
158	136	1	78	-1
157	50	0	37	2
157	20	6	28	4
158	-46	2	45	6
158	-20	3	28	10
157	4	-4	31	4
157	100	-4	-53	3
157	199	9	-125	4
158	136	18	-58	0
158	47	17	32	4
158	-9	24	86	5
157	-103	17	66	11
157	-191	-4	-28	8
157	-158	-11	-53	-16
158	-42	-10	-11	-28
158	9	-9	15	-12
157	-26	15	-24	-7
158	-45	46	-33	-11
158	-65	42	-10	-7
158	-35	16	-27	-14
157	-22	15	-26	-8
158	-16	38	-56	13
157	8	40	-5	23
157	16	27	112	20
158	87	30	69	13
157	71	24	38	6
158	35	13	70	-1
158	18	14	32	4
157	-54	17	37	5
157	-52	11	-5	5
158	20	17	-51	4
157	22	14	-23	-1
157	-31	13	-27	-1
157	-59	31	-12	-2
158	-89	28	-12	10
158	-91	13	-16	10
158	-120	-11	-9	0
157	-102	-30	18	9
158	-7	-8	66	4
158	68	29	22	2
157	127	26	2	2
157	123	19	32	-4
157	126	41	37	-12
157	101	40	64	-9
158	54	41	21	2
158	41	29	-9	-3
158	14	27	-29	-12
157	3	28	-40	-20
157	3	18	20	-11
157	-1	22	46	-4
158	-14	28	89	-3
158	11	17	78	2
157	0	4	0	11
157	-112	10	-57	19
158	-118	13	-59	15
157	-81	10	2	4
157	-105	7	17	-4
157	-33	6	52	-5
158	131	13	19	0
158	213	26	-54	11
158	196	28	-23	-3
158	92	22	-38	-16
157	-51	19	-39	2
157	-60	15	0	8
157	-51	17	7	7
158	-29	17	19	12
158	32	21	-4	6
157	66	15	-38	18
157	163	0	-25	15
158	205	-13	-25	0
158	140	6	-12	-1
157	57	25	-3	-5
157	-16	17	-62	0
158	-146	7	-60	-7
157	-232	6	-6	-6
158	-170	44	48	-5
158	-1	71	119	-2
158	98	59	130	-1
158	56	32	118	2
157	20	29	107	10
158	-46	6	46	14
158	-105	0	26	5
157	-74	14	19	2
157	1	19	-6	-6
157	-11	27	2	-3
157	-37	14	6	7
157	-31	4	21	3
158	-30	-3	17	2
157	-1	-2	-7	4
157	-7	2	-52	10
158	-18	6	-45	6
158	-22	14	8	-3
157	-2	20	-12	0
158	38	22	-18	2
158	41	24	-35	7
157	52	31	-41	0
157	89	19	-2	-2
158	85	29	-19	4
159	27	50	-51	3
158	-80	55	-49	6
158	-142	49	4	2
157	-104	43	86	-1
157	-16	38	102	0
157	68	32	23	-3
157	74	14	26	-11
158	128	-17	46	-5
157	137	-23	0	-2
158	95	-6	-9	-2
158	55	28	23	7
157	-28	33	105	5
158	-42	13	91	4
157	-63	25	-3	-1
157	-87	37	-60	3
158	-75	28	-40	-4
157	-39	20	-16	-2
158	14	28	-52	1
158	111	13	-1	-12
158	172	11	-15	-12
158	121	10	-13	-22
157	35	4	-18	-13
158	-86	17	-45	-5
157	-132	13	-16	-6
157	-110	18	-29	2
158	-20	21	27	10
157	40	19	43	13
157	26	19	55	13
157	94	13	57	14
157	89	13	22	9
158	65	14	24	8
157	41	17	5	10
159	40	15	14	8
158	35	11	17	10
157	-20	17	-5	16
157	-30	13	-10	9
158	-73	9	-20	9
158	-9	9	-31	-4
158	45	15	-24	-14
158	-41	19	-25	-2
158	-66	9	-10	-1
158	-107	2	-10	0
158	-122	13	-13	7
157	-40	22	45	-3
157	3	15	88	-7
157	56	24	69	-4
157	63	25	43	-4
157	35	15	32	3
157	17	15	38	0
157	11	22	21	2
157	27	29	-30	12
158	71	33	-4	8
158	116	33	31	6
158	53	21	11	3
157	-16	12	22	4
157	-59	14	15	9
157	-122	22	7	6
158	-111	19	8	2
158	-21	13	-1	5
157	-2	-3	-6	9
157	-15	1	1	-4
157	10	14	40	-3
158	-9	17	32	-4
158	-37	26	13	-14
158	-48	28	0	-9
157	-9	40	-6	-6
157	-2	41	47	-3
158	5	37	57	-4
158	45	31	-1	-1
159	71	29	-18	14
158	106	23	6	16
157	87	17	-40	3
157	59	21	-126	0
157	5	14	-68	-13
158	-15	8	-5	-3
157	1	6	2	3
158	-16	4	32	-8
158	-27	9	33	2
157	4	19	-2	-3
158	101	28	-28	-2
157	146	26	-8	5
158	91	7	-28	18
158	33	-5	9	18
157	25	0	47	2
158	-20	15	21	-2
157	-70	29	60	-2
157	-80	-1	72	-8
157	-100	-31	28	-4
158	-83	-34	14	7
157	-101	3	20	9
158	-82	30	16	11
157	47	-2	-4	4
158	126	-22	-26	-14
158	142	7	8	-19
158	44	88	38	-15
157	-7	131	19	-12
158	46	108	12	-3
158	29	70	13	2
158	22	45	28	3
158	32	33	35	1
158	-2	30	2	8
158	-36	23	-26	13
157	26	23	-19	2
158	42	24	-48	9
157	4	17	-48	7
157	-6	9	0	1
157	-13	0	-13	8
157	4	-2	10	7
158	-40	-4	9	2
157	-111	-7	-26	1
158	-94	-7	-13	4
157	2	-10	0	6
158	-8	-13	19	7
157	-54	-16	39	2
157	9	-7	52	4
157	-19	28	50	11
158	-62	63	81	10
158	5	34	72	10
157	64	7	-42	-6
157	67	28	-87	-13
158	79	6	-7	4
157	50	-2	32	11
157	10	-3	58	10
158	28	-11	68	-1
157	-5	-5	-40	-2
157	-3	9	-94	-1
158	20	22	-4	-13
157	50	31	7	-8
158	74	43	-43	-5
158	45	32	-19	-5
158	44	38	1	-1
157	12	42	30	4
158	-43	39	30	8
158	-110	35	29	4
156	-119	26	-2	0
158	-52	17	-9	-2
157	-32	-2	28	0
158	8	1	5	-2
157	55	7	23	4
158	100	2	39	2
157	196	7	35	-1
158	183	14	24	4
158	47	19	-4	12
158	-28	21	6	13
158	-82	15	8	7
158	-141	11	2	-1
157	-102	14	6	-2
157	-48	19	-7	5
158	-23	12	-2	1
158	-44	8	6	-2
157	-53	15	3	-1
157	38	38	-1	-4
158	71	53	2	-10
158	37	27	1	-6
158	31	19	18	-8
157	1	21	29	-3
158	-16	14	22	-1
157	0	17	52	1
157	5	19	20	7
158	32	32	-19	4
157	68	23	8	3
158	98	-5	10	9
158	69	-23	12	16
157	-111	-31	-4	10
157	-170	-23	-8	7
158	-176	18	-17	7
158	-246	42	-26	3
158	-167	29	-10	-2
158	-10	26	15	-8
157	172	31	44	-4
158	216	44	41	4
157	197	47	40	0
157	135	46	27	3
158	96	44	-21	0
157	111	34	-38	-1
158	56	35	-3	-2
157	47	43	-10	-11
158	3	50	-44	3
157	3	29	-30	-1
158	18	8	-3	1
158	-3	-7	7	13
157	-10	-7	24	10
158	-23	18	40	1
157	-47	19	87	-14
157	-72	2	139	-8
158	-89	5	32	-2
158	-98	17	-114	8
158	-62	21	0	0
158	-36	19	96	-2
157	33	18	-55	9
158	83	4	-84	1
158	59	6	-43	4
158	121	16	-18	-3
158	177	19	-1	-9
158	44	21	6	-4
158	-22	20	32	0
158	-3	24	7	-2
157	-44	17	2	2
159	-47	24	-2	4
158	-43	19	28	0
159	-4	11	31	4
158	-5	17	18	3
157	-38	8	20	10
158	-8	10	5	16
157	44	12	16	13
157	61	22	11	8
157	17	24	4	3
159	21	11	10	-8
157	-31	10	24	-13
158	-119	17	23	-4
158	-132	12	5	4
159	-69	5	-19	10
158	-16	1	-23	2
158	-47	10	21	-1
158	33	30	40	0
157	62	28	31	-4
157	32	30	36	-2
157	53	26	33	6
158	59	23	23	8
158	60	28	3	6
157	67	31	-23	6
158	60	57	-12	-6
158	-7	58	-12	-9
157	-63	13	-39	0
158	-80	2	-39	4
157	-54	7	-34	8
157	-83	9	27	9
157	-86	10	81	10
158	-8	-9	64	13
157	33	-12	85	-7
157	80	-1	22	-12
158	125	13	-56	2
158	211	8	-30	-13
158	234	-7	-11	-5
159	58	-24	-13	9
158	-56	-24	-6	0
157	-79	33	8	-7
158	-105	71	1	-3
158	-38	23	17	8
157	3	2	60	11
158	-14	3	44	10
157	72	38	-28	8
158	52	135	-70	15
157	-28	119	-15	7
158	-51	48	23	-1
158	-93	36	8	1
158	-3	24	39	-2
157	17	26	37	-13
158	10	11	17	-17
158	20	3	-24	-2
158	-4	16	-28	4
158	27	6	-1	5
158	44	13	-14	6
157	41	10	4	-1
158	1	8	-12	-2
157	3	10	-15	2
157	-20	8	6	3
158	-35	5	33	2
158	-42	1	43	11
157	0	-7	20	11
157	71	-15	16	8
157	-5	-6	14	6
158	-61	1	37	4
158	-17	4	44	9
158	-77	6	41	6
157	-121	18	12	-3
157	11	38	-50	0
158	143	38	-29	-3
158	136	25	3	-6
158	96	46	-17	2
158	31	46	2	-1
157	-38	14	-3	-1
157	-27	-11	3	2
158	-52	-13	16	2
158	-53	17	23	-2
157	3	22	26	-3
158	47	8	7	0
159	34	6	20	-3
157	38	19	35	2
158	51	28	26	12
157	30	37	4	19
158	22	47	27	11
158	-25	24	31	3
158	-24	5	-24	-7
157	-16	9	-79	-17
158	-17	12	-71	-21
158	-5	9	4	-15
157	17	3	22	-1
157	59	-7	30	2
158	77	2	57	0
157	54	11	59	-3
157	-14	14	66	-4
157	-97	25	74	-16
157	-98	31	37	-18
158	-2	42	-48	12
158	22	56	-37	18
158	-63	43	-15	8
158	-116	24	-37	17
158	-82	28	-16	10
158	-22	3	-17	6
159	12	-9	-11	-4
158	24	21	8	-15
157	30	42	16	-4
158	25	30	34	-7
158	19	17	-6	3
157	17	23	-50	14
158	11	23	-22	7
158	-14	18	-6	10
159	-12	15	-5	12
158	14	8	-2	7
158	38	0	-13	12
158	65	-2	-7	9
158	79	9	-13	7
157	97	17	29	2
158	105	19	107	-4
157	75	20	95	-5
158	58	23	32	2
158	4	33	29	2
158	-93	27	39	-1
158	-95	17	17	-3
157	-33	36	38	-5
158	-15	40	26	0
157	-12	23	-12	-9
158	13	10	-2	-3
158	49	5	6	2
157	83	11	27	3
157	52	7	-2	7
158	11	9	-68	-5
157	14	6	-55	-7
157	14	1	-63	1
158	1	-1	-55	1
158	-13	13	-4	4
157	-10	22	17	-1
157	26	17	61	-1
157	59	28	74	10
158	44	41	44	12
158	69	58	6	2
157	-37	29	27	-4
158	-192	7	31	-1
158	-165	12	-11	-1
157	-42	2	-25	4
158	113	14	-48	-1
157	122	25	-19	-10
157	61	40	1	-1
157	64	32	2	1
157	-3	23	19	4
157	-128	18	37	10
157	-127	16	33	9
158	1	15	25	12
157	-21	6	66	9
157	-82	19	22	7
158	-45	15	-65	10
157	-31	-6	-30	6
158	30	-28	45	2
157	44	-24	30	-1
157	52	-14	35	-6
158	29	14	15	-7
157	-13	52	-24	-5
157	28	13	8	-6
158	28	-22	46	-8
158	0	-22	61	-5
158	-51	-31	-10	3
158	-22	48	-41	2
158	55	152	-22	6
157	34	127	-18	6
158	29	57	31	3
157	38	38	3	8
158	57	31	-9	3
157	118	12	12	4
157	89	-1	-31	5
157	107	22	-30	6
158	121	43	-17	9
158	37	52	12	6
158	-63	42	29	-4
158	-129	-5	5	0
158	-54	-19	-25	13
157	15	21	-45	10
158	52	27	1	11
157	-14	-14	33	2
157	-70	-24	12	-4
157	-51	-20	37	-21
157	24	-1	45	-19
159	-9	13	38	-6
158	-77	7	49	-8
158	7	16	17	-3
157	-16	22	15	-4
158	-8	25	25	-2
158	-56	27	20	2
158	-75	39	26	2
157	-42	36	28	-1
158	-47	31	1	-1
158	27	27	-35	0
159	61	14	-14	-2
157	94	-2	5	-4
158	106	0	-5	5
158	84	27	10	6
157	34	41	20	4
157	22	15	22	0
158	12	12	13	0
157	-18	16	-6	8
158	-15	13	-10	11
158	-19	18	-1	9
157	-18	7	35	6
157	-29	6	38	-2
158	-19	10	-26	-10
157	11	17	-70	2
158	23	18	-23	7
157	4	10	-19	4
157	-16	14	-39	2
158	-10	12	-9	-8
157	-12	12	6	-4
158	-41	15	42	-6
158	-79	21	35	7
158	-49	18	33	12
157	-11	18	26	7
157	15	24	-2	10
158	49	19	14	10
158	65	14	18	14
157	88	16	10	7
157	106	23	16	6
158	95	22	26	14
157	52	17	44	6
157	60	12	60	-2
158	65	9	5	-4
157	6	17	-56	7
158	-23	23	-22	-1
158	-88	22	-18	-11
157	-133	17	-34	-10
157	-70	16	-4	-6
158	-8	17	10	-4
158	-5	19	42	0
158	4	18	32	13
158	62	7	24	21
157	67	4	41	13
158	-60	10	37	-12
158	-168	10	58	-28
158	-158	-6	62	-20
158	-110	-25	35	-4
157	-17	-14	-7	8
157	88	44	-22	2
158	81	91	-20	-11
158	127	104	-41	-9
157	156	86	-44	-7
158	87	39	-14	2
157	63	40	-23	5
157	26	29	-38	0
158	55	27	-30	6
158	19	28	17	6
157	-73	14	45	11
157	-83	15	19	16
158	-75	1	28	16
157	-75	14	28	11
157	-40	1	-9	-4
158	63	-34	-71	2
157	130	-41	-41	16
157	98	-47	65	17
158	53	-33	32	11
158	89	7	17	8
158	5	-15	28	4
157	-59	-12	2	-9
158	-36	128	21	-15
157	2	154	24	-17
157	98	62	55	-17
158	37	40	85	-16
157	-41	41	21	-10
157	61	59	-59	7
158	124	55	-27	4
157	-11	10	6	3
157	-118	-13	0	7
158	-147	2	43	7
158	-64	6	42	2
157	-31	11	27	-6
159	-3	24	-3	4
157	96	26	-13	6
157	49	26	-4	3
156	55	7	-32	3
158	11	-19	-38	-6
158	1	-34	-46	-13
158	-31	-26	-10	-9
158	-80	5	10	-4
158	-96	28	22	-2
157	-100	8	41	1
158	-29	-18	36	6
157	-31	-19	5	12
157	-27	5	-24	12
158	-57	10	14	10
157	-20	12	7	10
158	20	17	8	7
158	48	15	18	6
156	96	49	-5	3
157	142	70	0	4
158	202	49	8	13
158	106	23	32	13
158	42	25	1	6
157	-8	48	-25	-11
157	-23	51	-15	-22
158	61	36	30	-9
158	60	14	52	-12
158	-15	6	10	-5
158	-50	27	-9	10
158	-41	24	0	7
157	-35	10	8	9
157	-24	21	16	3
157	-18	9	38	0
159	22	7	31	-2
157	48	2	13	-2
157	9	-2	30	2
157	-14	6	24	6
158	-53	10	4	7
158	-117	10	20	2
158	-101	3	41	11
157	2	2	35	12
158	32	2	-48	7
157	25	7	-101	4
158	29	6	-23	-11
158	3	7	13	-2
158	-15	40	42	3
157	-82	69	50	8
158	-91	20	14	12
158	-49	-1	12	10
158	-7	15	-12	15
158	42	-14	-11	0
157	40	-11	-43	-9
157	80	1	-26	-7
157	110	19	23	3
158	62	30	-15	3
157	-12	38	-11	-4
158	-31	55	5	-8
158	20	42	0	-6
158	9	34	-10	-5
158	-22	36	-6	-4
157	-13	37	31	-1
158	-2	32	62	7
157	2	25	94	3
158	-8	21	70	-2
158	60	19	26	9
158	109	22	29	15
157	87	30	19	4
158	99	31	15	-7
158	50	19	-4	-13
158	12	1	-43	-5
157	-6	11	-55	10
157	-78	19	-3	0
157	-92	15	15	-10
158	-87	22	-47	-16
158	-45	18	-30	-18
158	11	26	-29	-3
158	43	24	-20	1
158	37	-6	6	3
158	-32	-51	-10	2
158	-24	-35	-4	9
157	32	-26	22	8
157	28	-86	43	10
158	56	-76	24	7
157	91	-22	29	10
158	74	84	42	11
157	95	177	30	6
157	88	145	-11	16
157	52	102	-48	2
158	-42	86	-25	-6
158	-105	66	4	4
157	-48	36	40	6
158	-9	13	70	2
158	-15	1	78	7
157	-41	-21	91	11
157	-24	-16	83	2
157	-63	-8	43	-1
157	-167	-6	-51	-14
158	-205	-6	-70	-13
158	-70	-13	-9	-11
159	61	29	-32	-7
157	67	53	-17	-3
157	52	12	0	-2
157	86	-14	-24	-3
157	145	-17	-17	-2
158	94	13	-6	2
157	111	15	12	-1
158	65	-25	-1	3
157	-28	-40	5	12
158	-67	-40	31	14
158	-30	-15	20	18
157	113	7	-18	14
158	49	25	-16	4
158	47	27	20	0
158	51	14	62	-6
157	-121	6	60	-12
158	-96	11	4	-1
158	-37	35	-10	-2
159	-141	56	-18	-2
157	-82	54	-28	11
157	67	8	-15	13
158	88	13	12	8
158	70	14	24	2
157	41	11	-2	-2
157	18	17	-8	-10
158	30	9	5	-4
157	23	11	31	8
158	34	0	49	9
158	37	6	39	-2
157	-2	-2	21	-13
158	-9	15	-34	-7
158	-20	36	-19	-11
158	-20	58	53	-3
157	-15	42	31	4
158	-23	12	-16	2
158	-53	30	-8	-4
158	-60	20	10	-5
158	-24	32	-30	2
158	-6	33	-40	13
158	16	30	42	19
158	35	31	39	10
157	22	23	-22	16
157	-58	27	-41	6
158	-106	31	-15	-7
158	-47	33	6	0
158	-1	22	41	-5
158	55	15	53	-9
157	115	6	33	4
158	157	4	57	-3
158	151	17	21	-6
157	67	57	-64	6
159	-18	76	-65	1
158	-49	56	2	-3
157	-5	47	29	5
158	-14	46	35	7
158	-35	50	-4	6
158	-15	42	-8	4
157	12	31	29	7
158	20	21	-1	13
157	-30	19	-8	6
158	-70	19	-4	4
158	-147	15	3	3
157	-135	13	-2	0
158	-121	13	16	-5
157	-95	15	-6	-3
157	16	10	-22	0
158	125	12	11	-5
158	361	17	10	-3
157	422	3	29	4
158	199	-12	1	0
158	31	-32	31	-6
158	-118	-34	83	-6
157	-295	-14	31	0
158	-299	-25	20	-2
157	-101	-12	48	-6
158	34	26	42	0
157	48	93	0	3
158	62	166	-11	2
157	29	116	-4	0
157	7	54	-16	6
158	-24	39	-13	3
158	-51	22	-19	-5
158	21	26	-29	-6
157	159	31	-15	-2
158	181	25	2	3
157	115	2	2	3
158	71	-4	16	0
157	35	-2	19	-2
158	-34	0	14	-2
158	-158	-11	6	2
158	-132	-21	2	2
157	-34	9	3	6
158	-27	5	10	2
158	75	-24	29	-4
158	179	-28	-12	9
158	224	-9	-34	9
158	226	-19	8	4
158	88	-10	7	4
158	-50	57	17	2
158	-191	66	31	7
158	-255	35	15	8
158	-165	55	33	11
157	-73	73	21	3
158	-19	33	8	-2
158	6	24	5	19
158	-17	22	37	22
157	-55	7	56	3
157	-28	-2	-47	3
158	-26	-2	-66	2
158	-122	1	6	-4
157	-117	2	32	6
158	-32	2	32	6
158	-10	-19	-3	-8
158	67	-14	-9	-15
158	138	3	3	-13
157	155	1	19	-17
158	139	-7	23	-19
158	69	6	14	-11
157	14	19	17	-12
158	-54	31	11	-14
158	-51	55	15	-4
158	21	59	7	8
157	41	63	-4	8
157	64	48	-15	7
158	72	12	-14	10
158	82	9	4	10
158	79	46	9	11
158	0	18	1	13
158	-46	-3	-15	-1
157	7	-1	-2	-8
158	26	-3	15	3
158	-6	-6	13	7
157	-33	-18	23	15
158	-109	7	38	14
158	-72	-2	-2	15
158	16	3	-34	12
158	-8	11	-43	-4
158	-19	29	-33	-1
158	17	36	4	-1
157	32	13	43	-9
158	18	21	74	-7
158	8	43	38	-2
158	13	47	-7	-1
158	9	14	-3	-8
157	7	4	34	-10
158	-30	12	10	-6
157	-49	32	-28	-4
158	15	25	-5	-2
159	-3	21	4	3
158	-24	27	45	11
159	26	11	27	9
158	13	-15	5	13
157	12	-18	34	16
157	-19	-15	38	18
157	-51	-23	35	9
157	-40	-21	-2	1
157	38	-19	-19	15
158	114	83	-35	7
157	68	134	29	-4
159	73	56	17	-8
158	73	58	10	-10
158	38	80	92	-8
157	14	35	5	-1
158	-21	14	-83	7
158	-107	9	-60	0
157	-164	-3	0	2
157	-75	-9	-23	-1
157	-68	-22	-15	-3
158	-143	-23	-14	0
157	-161	-27	-47	2
157	-99	-24	-7	6
158	34	4	48	4
157	138	50	78	2
157	187	85	27	6
158	203	43	13	-3
158	205	9	18	-13
158	105	57	19	-13
157	0	55	11	-12
158	-16	33	-23	6
157	68	33	-5	4
158	132	43	10	-1
157	177	42	-5	4
157	163	13	0	1
157	8	13	22	0
158	-31	4	61	-3
157	-93	4	67	7
158	-69	6	10	14
157	-54	0	-28	7
158	-88	3	-49	3
158	2	1	-32	2
158	58	-1	7	6
158	58	1	-8	11
158	-43	1	-6	-1
158	-18	3	8	-10
158	-95	12	17	-12
157	-205	19	26	-7
158	-65	22	22	-4
157	-93	15	19	6
157	-170	14	9	5
157	-87	14	9	-3
157	8	19	19	-7
158	85	20	27	-12
158	81	11	32	-3
158	21	29	43	-4
158	8	33	25	0
157	-13	12	4	3
157	-110	26	-1	10
158	-177	35	-9	8
157	-113	29	4	-1
158	-29	51	5	0
157	26	51	2	6
157	79	36	-11	3
158	199	-20	-16	1
158	349	-77	8	5
156	291	-22	18	11
157	146	44	21	21
158	94	46	48	15
158	110	86	80	-1
158	69	67	35	-8
157	-22	30	-84	-6
157	-109	9	-58	-4
158	-116	-106	15	2
158	-71	-86	-48	17
158	-42	0	-9	11
158	-24	-6	10	6
159	-40	-2	-5	4
157	-5	-10	5	-7
157	-20	-14	-18	-12
158	-21	-6	8	-10
158	8	97	4	-8
157	7	171	2	5
158	-1	105	-14	8
158	-32	38	-9	6
158	-13	24	23	1
158	59	32	25	2
157	108	4	35	11
157	32	13	75	4
157	-4	15	77	0
157	-81	6	5	3
157	-155	6	-11	-5
158	-51	11	-9	-1
157	39	28	-8	-4
157	-33	20	-15	2
158	-125	17	-32	0
158	-131	1	-15	-3
158	-111	7	-17	7
157	-34	12	-7	4
157	21	14	14	0
157	102	20	17	4
158	140	20	16	7
158	132	25	19	-2
158	87	19	23	-4
157	29	12	20	-7
157	-3	13	19	-1
158	-55	9	21	2
157	-61	10	9	6
157	-81	7	2	3
158	4	-2	23	4
157	66	11	25	5
158	50	21	4	3
157	85	22	-21	5
158	69	11	3	-5
159	64	10	57	4
157	85	27	21	6
158	33	28	-9	7
157	-47	40	0	6
158	32	40	6	1
158	50	25	39	-1
157	32	18	18	5
157	123	12	-16	12
158	139	-4	-14	10
158	94	-16	-11	12
158	-1	-15	-4	4
157	-120	12	20	0
157	-241	50	43	-4
157	-149	65	62	-5
158	-31	63	54	-4
158	-82	72	-25	0
157	-32	29	-47	3
157	29	-3	-9	-12
158	20	1	-35	-14
157	10	9	-3	-24
158	-6	13	24	-10
157	-28	-2	-2	2
157	-36	-7	7	-1
158	-34	-15	-23	5
158	-77	-8	-14	0
158	-34	-15	0	3
158	95	-3	-8	6
158	122	14	25	3
157	125	98	34	0
158	137	125	0	3
158	84	51	-22	14
158	1	61	21	17
158	-89	46	54	18
157	-135	24	59	0
158	-78	-37	25	-6
157	8	-61	-22	2
157	41	33	-22	10
158	100	65	-25	0
158	183	22	1	-12
158	194	-14	-10	-19
157	101	0	-35	-22
157	-21	6	-12	-12
158	-55	7	13	3
157	-21	7	16	11
158	-40	3	-11	11
156	-33	11	15	11
157	-19	8	71	4
157	-169	22	128	7
157	-145	33	100	11
158	113	45	-15	10
158	42	24	-39	10
158	-15	-16	-27	3
157	102	-15	-33	-1
158	-82	47	-30	-3
158	-237	102	-2	0
159	-149	62	-3	2
158	25	37	-5	-2
158	86	55	13	-7
159	79	54	21	-4
158	82	-21	37	7
157	46	-106	50	6
157	40	-116	91	1
157	23	-59	38	7
157	14	-12	-98	14
158	-1	-12	-87	-2
158	7	13	-3	0
158	-4	32	-2	10
158	-14	32	-3	6
158	-28	36	-12	11
158	-35	42	-2	4
158	31	56	32	-4
158	45	40	38	-12
158	15	11	27	-15
157	12	14	-6	-9
157	17	10	-2	-3
158	-20	10	-5	10
158	-63	34	7	13
158	-66	46	4	12
158	-53	31	-24	-4
158	-80	21	-14	-9
158	-87	22	25	-8
157	-13	18	53	-4
158	88	30	31	2
158	169	33	32	-5
158	162	45	16	3
158	105	47	25	-5
158	112	37	28	-2
157	131	25	-23	2
157	77	11	1	-9
158	42	18	8	0
157	20	24	1	0
157	-37	15	-6	7
158	-28	18	-4	3
157	-25	15	25	2
158	-45	11	5	15
158	-37	13	-4	9
158	-33	13	-5	1
158	-29	13	-6	0
158	-18	11	3	7
157	-75	5	1	3
157	-121	5	-3	-3
157	-5	-8	28	4
158	74	-24	41	9
157	55	-15	20	8
157	69	-17	7	14
157	87	-18	-11	8
158	-53	-9	13	-4
158	-240	67	8	-1
157	-217	153	4	0
157	-43	91	21	-4
158	80	52	10	-5
158	89	67	-22	-14
158	44	41	-69	-5
157	-24	47	-14	8
158	-50	61	45	7
157	-38	10	15	9
157	-13	-42	10	4
157	18	-15	28	7
158	-6	-9	66	6
158	-35	-24	85	3
158	2	-42	-4	4
157	91	-13	-58	6
158	98	44	-18	-8
158	111	52	-17	-12
158	177	39	-16	-1
157	196	27	-5	3
158	188	37	-14	5
158	101	25	-5	3
157	51	-2	6	-2
157	60	24	23	-16
158	-8	65	39	-18
158	-47	37	82	-16
158	-70	43	85	-6
157	-81	35	74	3
158	-6	2	47	12
158	34	9	-58	21
159	-42	-10	-68	12
157	-117	-22	2	6
158	-160	-23	-27	-8
158	-321	-9	-38	-6
157	-336	4	0	-1
158	-61	15	-16	3
158	131	10	-10	6
158	172	12	4	0
158	175	37	21	7
158	93	50	23	4
158	82	31	5	6
158	52	-3	-14	4
157	-1	6	-23	-3
157	3	21	28	-5
158	-49	26	31	-4
157	-27	41	2	4
158	-55	30	15	7
157	-130	10	-3	10
157	-95	12	5	7
157	-71	4	55	3
157	-26	-1	86	-5
157	145	11	44	-1
157	247	45	-25	2
157	193	59	-3	-1
157	137	84	0	9
157	-37	64	2	4
158	-95	73	19	1
157	53	75	-12	-6
158	91	-82	-24	-1
157	89	-87	-17	5
158	37	-36	6	2
157	-49	-34	8	4
158	-72	-10	2	14
158	-28	-22	1	17
157	-41	-1	26	12
157	-77	13	64	7
157	-40	51	104	-1
158	-23	52	21	-4
158	-3	11	-119	-14
159	15	44	-62	-18
158	58	34	9	-12
157	53	15	-3	-8
158	11	18	2	-20
157	-18	14	-21	-12
157	-29	17	-27	0
157	61	21	-41	0
157	59	26	-35	10
157	-7	24	21	10
157	-28	15	46	3
157	-62	0	21	4
158	-72	4	27	3
158	-75	13	37	3
157	-30	13	27	-1
157	1	17	34	-1
158	-11	29	33	4
158	-5	51	14	7
158	15	71	-23	12
157	44	48	-31	12
157	-14	15	-5	16
159	-69	9	10	13
157	-13	-14	-3	13
158	-3	-2	9	7
158	-63	24	47	3
158	-23	26	59	4
158	65	28	68	-9
157	99	35	58	-5
157	68	69	50	-3
158	22	56	19	4
158	100	-22	-8	6
158	113	-26	-17	2
158	61	43	-55	0
158	43	24	-21	-14
157	-4	-6	9	-10
158	31	-14	12	-6
158	23	1	5	-12
158	32	19	-27	-6
157	37	17	-21	-1
158	10	36	-18	2
158	30	8	-28	7
157	-5	3	-9	3
158	-106	14	-5	4
158	-167	29	-13	10
157	-156	22	4	1
158	-83	14	2	-1
158	106	21	-2	-2
157	179	17	53	-2
158	257	17	116	7
158	212	4	68	7
157	17	-3	-46	18
159	-80	-11	-39	16
157	-126	-2	19	5
157	-97	34	9	8
158	-113	82	-9	-9
157	-91	88	-34	-18
158	-131	60	-16	-10
158	-124	79	5	-6
158	-85	53	17	5
158	-36	26	46	8
158	33	29	46	9
157	36	-43	43	6
157	89	-66	19	-10
158	68	-35	6	-6
157	32	-50	0	3
157	-27	-54	5	2
157	-52	-50	10	9
158	-53	-41	10	6
157	-46	-5	29	3
157	31	105	34	6
158	166	118	30	9
158	330	38	2	6
158	340	68	3	-2
158	211	112	21	-10
157	103	66	-6	-8
157	22	17	-46	-4
157	-212	43	-34	-7
157	-224	26	4	-3
158	-36	18	0	-1
157	-102	1	-8	6
157	-102	-34	-14	12
158	-63	-23	-17	9
157	0	-16	-15	10
158	78	11	-1	6
158	21	15	43	-2
157	17	32	45	-6
158	-33	29	-4	-6
158	-56	43	-12	-8
157	-26	34	8	-10
158	-16	18	0	0
158	-40	53	14	4
157	-25	21	21	3
157	55	12	-14	4
157	19	23	-2	-1
158	24	10	15	-2
158	10	4	28	4
158	23	-2	42	4
158	38	11	-16	11
158	-45	14	-70	10
157	-52	17	-28	-8
158	-12	22	-2	10
157	17	28	5	8
158	8	26	55	11
157	2	15	71	9
158	22	15	8	2
158	17	-4	-46	7
158	-36	-27	-19	-14
158	-35	-15	-3	-5
157	-21	-2	43	-4
159	-12	9	74	-7
158	28	32	66	-7
158	49	42	71	-4
158	66	41	10	12
157	-45	-1	-33	16
157	-93	-43	-12	13
157	-10	36	-42	2
157	8	79	-22	-5
157	64	63	53	0
157	119	64	22	-10
158	169	11	-5	-11
157	191	17	12	-6
158	69	16	5	-1
157	-10	19	-8	10
157	-54	28	15	3
158	-51	14	24	0
157	-33	22	8	-4
158	-60	13	-17	2
158	-50	11	-33	13
157	-18	4	-16	18
158	78	10	-20	19
157	73	11	-16	14
157	12	6	-16	18
158	-38	7	14	7
157	-121	14	29	-3
158	-125	29	15	-13
157	-90	26	33	-13
158	-16	12	29	-6
158	7	-17	50	-9
158	38	-23	27	-2
157	107	-9	-10	6
157	124	-18	5	4
158	38	-28	-2	-2
158	-88	-10	0	-7
157	-107	79	13	-7
158	-52	149	32	-2
157	-42	69	7	4
157	-17	33	-37	6
157	74	48	-8	7
158	137	28	21	9
158	167	47	21	8
157	123	63	17	-1
159	39	82	22	-4
157	-40	2	44	-4
158	-40	-23	-25	8
157	-40	13	-65	14
158	-102	-14	-5	3
158	-138	61	-10	2
158	-145	54	-18	3
158	-67	-14	-2	1
158	8	-37	-3	0
158	14	-106	22	-2
158	66	-85	33	-1
157	196	-2	52	-2
158	240	8	99	2
158	221	-21	124	4
158	195	9	56	-8
158	148	54	-45	-3
158	63	73	-27	3
158	-50	51	-2	-2
157	-119	21	-32	-2
158	-267	42	1	0
158	-275	40	21	16
157	-35	18	-2	25
158	23	27	-43	25
158	-52	37	-65	9
157	-73	19	-8	-4
158	-141	19	8	-2
158	-74	17	8	-7
158	-2	16	12	-2
158	28	17	2	4
157	48	-3	7	4
158	54	-15	1	7
158	168	-1	17	4
157	241	18	21	-13
157	157	44	27	-20
158	55	75	24	-22
158	-34	110	14	-16
158	-63	72	21	-8
157	-5	-37	1	-5
158	-17	-22	6	6
158	-22	44	36	-1
158	-47	33	6	0
158	-55	6	-9	7
157	-36	-23	-14	14
157	-22	0	-43	12
158	-9	7	-16	-1
158	-32	2	-9	-5
159	-13	15	1	-5
157	-36	-1	37	-7
157	-97	-19	9	-12
158	-98	-38	-7	-4
159	-42	-23	14	7
158	38	-23	15	14
158	88	-22	49	9
157	91	-10	57	1
157	120	48	19	-2
157	112	166	-9	-1
157	49	141	-36	4
159	8	59	-30	7
157	28	64	-34	8
159	42	58	-1	6
157	-10	46	27	5
157	-7	9	15	2
158	33	-21	82	-2
157	26	-26	69	-9
158	18	-45	-25	1
158	51	-27	-58	11
158	20	3	20	-1
158	-56	65	47	0
158	-104	67	32	2
157	-70	14	40	0
158	-20	32	43	-2
157	18	39	93	2
158	90	46	0	4
157	75	31	-79	2
159	47	-15	-36	1
157	-1	-5	-29	0
157	-129	2	1	1
158	-194	11	14	0
157	-106	28	-16	8
158	-33	19	-26	7
157	-44	15	-16	9
157	41	6	24	9
157	-6	6	36	0
157	-87	10	6	4
158	14	10	-12	13
158	78	16	-4	4
158	44	9	2	-3
157	43	11	-29	0
158	61	21	-40	-6
158	90	24	-5	-5
158	78	29	19	2
157	56	55	14	5
157	52	67	13	-13
158	-21	58	23	-20
158	-26	51	41	-17
157	66	19	38	-17
158	246	-24	23	-5
158	174	-51	35	-1
158	16	-66	35	3
158	37	-81	19	13
158	-19	-25	-3	11
158	-29	18	-15	9
158	-72	-6	-3	9
157	-106	2	-6	7
158	-41	28	-8	3
158	8	42	3	-9
158	46	28	17	-9
158	39	30	23	-1
158	15	35	17	0
157	5	42	8	1
157	-78	34	7	0
157	-84	4	14	12
157	55	-6	2	15
157	25	33	-6	14
158	-62	51	-5	15
157	-151	-1	2	16
158	-221	-40	-6	13
158	-136	5	-3	1
157	-80	60	8	-7
158	26	79	4	-7
157	117	91	21	-4
158	189	73	23	-14
158	149	76	-12	-2
158	58	45	4	4
157	-21	38	35	7
158	-151	30	21	10
157	-68	27	-8	-7
157	-17	37	13	-10
158	-75	-11	27	-5
157	-8	-32	-13	2
158	96	12	-6	4
157	154	28	32	4
158	189	-18	55	2
157	106	-6	39	11
158	-16	44	36	11
158	-53	10	19	-8
157	-4	-13	-72	-6
158	36	32	-80	3
158	39	52	-27	3
158	42	72	4	7
158	5	35	-7	11
156	9	-4	-23	13
158	-26	-29	6	7
157	-62	-33	17	3
158	-69	11	26	2
157	-50	-6	48	-1
158	-15	-22	17	6
158	-26	-8	11	9
159	-11	3	35	0
158	1	5	23	-12
158	14	18	42	-12
158	2	26	31	-4
158	6	21	33	2
158	24	19	4	4
157	37	15	-42	9
158	49	12	-18	8
157	5	8	-10	0
158	-5	8	-6	2
158	-5	6	-8	2
157	12	22	-12	-1
159	37	25	-5	4
158	50	11	2	4
158	38	30	10	-12
158	-17	46	1	-11
157	-47	31	-3	-4
157	-62	22	-4	-3
157	-103	19	2	9
157	-63	39	11	10
158	100	49	25	13
158	136	34	60	9
157	114	25	50	9
157	74	-8	-10	15
158	-44	-32	-47	-6
157	-43	-16	-28	-8
158	-68	7	-12	-8
158	-182	34	-6	-20
158	-177	83	22	-11
157	-106	84	63	-4
157	-51	75	40	-1
157	85	66	11	9
157	150	34	48	4
157	95	11	41	-5
158	133	-77	56	-7
157	228	-131	67	-8
158	236	-46	-3	-2
158	82	106	-90	11
158	-42	127	-64	12
158	-39	60	8	12
158	-42	62	8	20
158	-61	44	27	18
157	-19	19	18	15
157	-6	24	53	-2
158	-46	-11	46	-4
158	-56	-34	-37	6
158	-40	29	-67	9
157	-24	9	-20	11
157	-35	-26	10	0
158	23	4	-15	-2
158	108	-10	19	-7
158	95	12	-2	-7
157	3	10	1	-9
157	-72	7	5	-13
158	-91	10	0	-12
157	-41	10	17	-7
157	35	4	2	2
158	110	-12	4	0
