File Name: not saved
Channel 3: 'EKG', 22440 values, raw ADC, no filters.
Channel 4: 'FCR_EMG', 22440 values, raw ADC, no filters.
Channel 5: 'FCU_EMG', 22440 values, raw ADC, no filters.
Channel 7: 'ECU_EMG', 22440 values, raw ADC, no filters.
Channel 8: 'ECR_EMG', 22440 values, raw ADC, no filters.

157	10	17	-18	2
158	9	19	-6	9
157	8	22	34	12
159	7	18	48	17
157	4	16	13	26
158	4	16	3	29
157	7	17	21	15
157	8	21	49	1
157	8	16	43	-5
158	6	18	13	-4
157	8	17	19	4
157	5	17	16	7
158	5	18	11	14
158	9	18	12	16
157	7	19	17	13
157	5	19	20	10
158	3	19	12	7
158	1	21	-8	-1
158	1	21	-24	9
158	5	18	-25	21
158	4	19	-13	17
157	3	19	0	14
158	2	15	-2	6
158	1	14	8	6
157	3	17	8	6
158	2	17	1	2
158	4	19	12	2
158	7	22	29	-7
157	4	20	33	-15
158	4	23	20	-21
158	7	22	20	-22
158	5	21	27	-15
158	8	22	21	-12
157	5	18	-2	-2
157	6	19	-8	4
158	5	17	17	1
157	3	16	15	8
158	7	17	-7	10
157	5	16	-9	10
158	6	13	-33	13
157	7	13	-26	9
157	7	12	-5	5
157	7	16	-9	-3
158	4	15	6	-2
158	4	15	0	1
158	3	18	0	-7
158	1	15	1	-8
158	1	15	1	-4
157	0	14	12	2
157	8	17	15	3
158	21	20	8	1
158	16	17	4	2
158	3	14	10	10
157	9	14	13	7
158	7	16	16	2
158	3	19	11	11
158	4	19	8	5
157	0	19	10	-1
157	4	19	13	-11
157	5	22	25	-5
157	6	20	17	-9
157	3	21	12	-4
157	3	24	4	9
157	4	19	3	9
157	3	19	19	14
158	6	17	14	9
157	7	18	6	10
158	8	21	9	2
158	7	19	5	2
157	9	19	-7	1
157	8	19	-9	-3
158	8	19	5	-14
157	8	18	10	-21
158	6	16	5	-29
158	7	16	5	-29
158	4	18	8	-14
157	3	19	22	-2
158	3	21	26	9
157	3	19	34	14
158	3	16	34	23
158	5	11	14	32
158	6	19	2	30
158	3	19	12	30
158	5	15	21	36
158	5	20	4	31
157	4	19	-9	25
158	5	22	-6	21
157	4	19	29	10
158	6	19	39	-16
157	7	23	1	-43
158	7	24	10	-60
157	5	21	19	-61
158	8	16	19	-32
158	10	14	10	-16
158	8	11	-18	-21
157	3	15	-2	-5
158	-1	17	8	0
157	-4	18	1	2
158	0	18	10	8
157	4	15	-3	11
158	10	17	-30	7
157	8	18	-55	-1
158	3	18	-89	10
157	-1	16	-46	16
157	2	17	5	18
157	4	18	-3	13
158	1	17	-14	8
157	3	17	-11	7
158	7	19	-3	-1
158	5	19	16	0
157	4	19	42	5
157	5	21	57	14
158	4	17	50	19
157	1	16	28	15
158	1	16	21	16
158	1	17	8	18
157	1	16	-3	13
158	0	14	-14	9
157	-1	17	-15	4
158	-5	18	16	2
157	-3	19	55	-4
157	5	19	65	-9
157	12	24	38	-6
157	22	30	1	-8
157	18	29	-23	-10
157	9	25	-11	-4
158	8	22	2	0
157	5	16	3	6
158	0	17	3	9
158	2	19	6	5
158	1	17	15	8
157	2	18	25	10
157	4	15	30	9
157	5	14	39	-2
158	7	16	41	-8
158	7	18	25	-3
157	6	17	4	2
157	5	17	2	0
157	5	19	8	-2
158	4	18	6	5
158	3	17	5	2
158	7	17	8	0
157	3	17	-5	6
158	5	18	-15	6
158	7	17	10	2
157	6	16	-3	-2
157	7	14	-23	-2
158	7	16	-9	-11
158	5	18	-4	-8
157	8	17	-1	-9
157	8	19	-5	-6
158	3	21	-20	-9
158	5	22	-16	-22
158	4	20	0	-4
157	5	20	-6	-3
158	4	19	10	-8
157	4	15	25	0
157	5	13	26	2
158	5	14	8	15
157	9	15	-2	20
157	8	13	31	23
157	4	17	24	22
158	1	22	17	25
157	5	23	29	32
158	6	24	19	25
157	8	21	19	25
157	8	15	-5	16
157	7	15	-31	-11
157	4	17	-5	-35
158	5	17	42	-39
157	5	17	22	-40
157	10	16	-2	-38
158	8	17	-1	-20
157	6	19	-23	-6
158	6	22	-7	-19
158	3	18	13	-25
157	8	15	14	-17
158	6	16	4	-27
157	7	21	8	-20
158	7	17	19	6
157	5	16	5	4
158	3	20	-7	12
157	3	19	-9	21
158	3	22	3	16
157	2	18	12	19
158	3	17	16	24
157	4	19	19	27
157	4	16	22	32
157	2	12	16	29
158	2	16	13	17
158	2	17	-6	10
157	7	15	-10	2
157	7	19	4	-6
158	5	21	-6	-2
158	6	22	-7	5
158	4	23	0	11
158	5	22	6	20
158	7	18	9	20
158	8	17	2	0
158	5	15	8	-4
158	4	14	37	0
157	1	17	50	0
157	0	18	22	6
157	4	19	23	-2
157	6	19	19	-4
158	4	21	0	-3
157	1	22	-5	-5
157	3	19	6	-2
157	-1	19	13	0
158	3	19	4	3
157	-2	20	10	-9
157	-12	21	1	-15
158	-10	18	10	-10
157	-5	18	15	-6
157	2	18	13	2
157	1	18	23	5
157	7	18	17	13
157	19	23	2	19
157	25	21	-29	19
158	24	22	-28	4
158	14	23	-1	-12
157	10	20	5	-5
158	10	24	-2	-3
158	8	21	6	-2
157	2	14	14	-9
157	5	16	2	-13
157	4	18	-2	-11
158	4	18	-3	-11
158	10	17	-18	-9
158	10	15	2	-2
157	3	14	33	7
158	3	16	-1	3
158	3	14	-27	5
158	1	15	31	5
158	3	19	41	8
157	3	18	23	7
157	-4	18	29	9
158	-17	14	0	13
157	-19	13	5	11
157	-4	15	15	14
157	3	14	24	11
157	9	15	33	-2
157	10	17	15	-8
158	20	17	23	-4
158	35	22	14	-3
157	35	26	0	-2
158	24	31	-9	-4
158	16	29	9	-9
157	9	21	13	-9
157	5	17	8	-9
158	7	21	19	-5
158	1	19	2	-1
157	-1	15	9	-6
157	1	16	13	-4
157	-2	16	-28	0
158	1	17	-49	1
157	0	17	-21	-4
157	0	19	-13	-2
158	-1	18	-10	11
157	1	15	2	16
157	2	15	0	13
157	2	15	18	16
157	0	13	19	17
157	0	15	18	11
157	1	16	3	11
157	2	11	0	-6
157	3	15	15	-9
157	6	19	15	-1
158	5	18	20	-6
158	7	19	8	6
158	8	22	10	3
157	7	18	9	-4
157	8	21	0	-5
158	5	23	8	-2
157	7	17	13	0
158	3	17	19	-5
158	3	17	22	-7
157	8	19	-10	-4
158	11	19	-8	8
157	5	14	10	4
158	0	13	-14	1
157	1	15	-15	4
158	-3	21	0	3
157	1	21	7	2
157	9	19	2	1
157	10	20	-4	7
158	9	22	14	6
157	8	23	28	4
158	9	21	27	8
157	7	18	13	6
157	1	19	2	9
157	3	21	13	11
158	4	19	20	14
158	3	17	28	16
158	5	21	53	13
157	3	18	74	2
157	3	15	67	-11
158	0	14	19	-25
158	2	15	-15	-37
158	7	22	5	-28
157	6	23	-20	-8
158	8	23	-26	-8
157	7	19	9	-7
157	9	22	1	-2
158	8	19	16	4
157	5	17	2	8
158	7	19	-16	-1
158	5	15	-17	8
158	5	16	-17	13
158	3	17	-5	11
158	-1	18	-5	14
158	-8	16	0	14
157	-8	15	-4	20
158	-3	15	3	17
157	2	14	6	14
158	3	14	7	5
158	10	17	9	-4
157	22	23	4	-9
157	23	23	16	-11
158	25	27	13	-2
158	23	24	-1	3
157	13	20	-17	2
158	0	17	-23	3
157	-12	11	-5	2
158	-10	16	40	-12
158	3	19	57	-12
157	7	13	20	2
158	9	15	16	1
158	12	14	2	-12
158	17	15	-42	-12
157	23	19	-37	-11
159	20	19	3	-5
158	13	18	23	-1
158	9	17	28	2
157	7	20	23	2
158	3	21	9	1
157	-3	23	-5	2
157	0	25	-19	-2
157	1	22	5	2
158	-3	19	24	4
157	-1	20	21	-2
157	0	18	29	4
158	-1	16	18	7
158	0	20	15	-4
158	1	19	18	-9
158	0	17	21	-2
158	0	12	15	3
157	-2	11	-7	5
158	-1	14	-3	5
158	-1	18	24	4
157	-2	19	35	7
157	1	19	-5	14
158	3	22	-26	15
158	5	24	1	11
157	4	17	10	13
158	5	20	20	9
157	5	19	32	6
158	2	15	18	6
158	2	17	-2	3
158	8	17	-10	7
157	9	20	6	6
158	4	18	-8	13
158	5	16	-14	7
158	4	15	-6	-4
158	6	15	1	0
157	5	15	12	2
158	5	18	-1	4
158	4	16	-4	8
157	3	19	-11	4
157	2	18	-22	-1
158	3	15	-18	0
157	12	18	-9	-1
158	15	17	2	1
157	11	18	18	2
158	4	18	23	-6
159	0	15	16	-6
158	3	15	19	-4
158	8	19	16	-6
158	5	21	19	-8
157	0	21	31	-6
158	-1	21	26	-4
158	7	22	23	0
158	10	19	32	3
157	7	16	47	4
158	6	16	43	5
157	8	17	21	9
157	5	19	27	7
157	6	18	38	0
158	5	17	-3	2
157	3	17	-32	4
157	5	14	-17	-2
157	5	14	-20	-4
158	5	16	-11	-7
158	5	17	-4	-7
158	8	21	1	0
158	5	15	19	7
157	3	12	6	14
158	3	16	-10	6
157	-4	16	2	-1
157	-16	20	26	-2
157	-8	17	2	-2
157	3	15	-32	-8
158	4	12	-44	-7
157	11	15	14	-11
157	15	19	42	-10
158	22	18	-2	-8
158	25	19	-5	-2
158	22	19	-14	11
158	16	23	-9	14
158	12	19	25	14
157	19	23	20	2
158	16	19	15	-4
158	7	21	12	-19
157	5	22	12	-22
157	5	24	11	-5
158	-1	27	8	4
157	4	22	4	1
158	2	18	-10	5
158	3	17	2	18
157	4	19	9	15
158	3	22	7	19
158	2	19	20	24
158	0	19	28	18
157	1	24	24	13
158	2	21	15	2
158	0	14	2	-4
157	-2	17	-4	-2
157	2	22	-4	-4
157	0	22	0	-4
158	2	19	0	4
157	3	16	4	10
158	4	15	18	11
158	7	14	26	9
157	6	10	21	1
158	4	15	7	-8
158	3	17	11	-25
158	3	15	14	-33
157	5	14	8	-21
157	3	17	15	-5
158	3	15	6	-4
157	8	17	2	-2
158	5	16	1	-2
157	-7	11	13	-8
158	-12	16	27	-6
158	-6	15	11	-9
158	-3	16	-17	8
157	5	21	-18	16
157	8	19	3	8
158	15	20	-4	13
158	23	25	-3	12
157	23	24	0	16
158	14	23	1	14
157	8	17	4	11
158	12	18	15	10
158	13	18	42	6
157	6	18	29	6
158	5	19	11	-2
158	6	20	6	-2
158	4	19	5	0
157	5	19	15	3
158	4	22	34	-4
158	1	17	43	-6
157	2	17	3	2
158	3	21	-18	4
158	3	17	5	6
158	1	18	-6	8
157	2	19	-4	-13
158	3	15	1	-18
158	3	18	-1	-8
157	3	16	6	-4
159	3	16	1	3
158	7	17	2	6
158	6	15	10	3
157	5	16	23	-2
157	3	17	13	-8
158	-5	15	4	-3
159	-3	19	15	3
157	0	17	8	7
158	4	14	-42	21
157	4	19	-35	15
158	-2	22	5	7
157	1	21	-12	10
157	5	19	-5	7
157	10	22	2	7
157	16	26	20	5
158	10	24	39	4
158	4	22	29	1
157	9	17	8	4
158	6	11	-13	4
158	4	13	0	-16
157	8	19	4	-22
157	10	22	-16	-18
157	11	17	-38	-9
157	10	19	9	-2
158	11	18	59	-4
158	7	17	17	0
157	4	15	18	3
158	4	14	29	4
158	4	17	19	11
158	4	18	21	27
158	6	21	5	30
157	6	16	5	31
158	5	17	3	35
157	5	20	10	25
157	5	21	17	-1
157	7	21	10	-19
157	7	19	1	-40
158	5	21	6	-51
158	5	19	11	-38
157	3	14	8	-33
158	0	15	9	-13
157	1	16	8	-6
158	1	15	12	1
157	1	17	-7	13
157	0	19	-16	11
157	0	19	0	17
158	3	18	25	16
158	3	20	29	2
158	5	26	5	-5
158	7	25	-15	13
158	8	24	4	8
157	5	19	23	7
158	5	21	0	18
158	5	20	0	14
158	6	17	-4	17
157	7	19	-2	4
157	7	17	12	-7
158	4	17	6	-16
158	3	18	8	-29
158	4	19	12	-28
157	3	16	49	-10
157	5	15	67	-3
158	3	14	19	-3
158	2	11	-1	9
158	2	15	0	11
158	1	19	-5	17
157	3	14	1	17
157	3	16	-12	13
158	1	16	-16	3
157	2	17	-7	2
158	5	21	-10	4
158	5	22	-8	3
158	8	19	-6	8
158	8	19	3	4
158	1	22	6	0
157	-8	18	18	-2
157	-5	17	16	-1
158	3	17	15	3
158	7	15	24	2
157	10	15	-2	7
159	12	17	-14	2
157	26	19	6	-3
157	32	22	17	2
157	23	23	28	1
158	12	24	25	6
157	7	24	29	10
158	3	21	16	12
157	-1	14	-23	18
157	-5	10	-43	23
158	-8	15	-15	15
158	-6	21	38	7
157	-4	19	31	2
157	1	20	-11	-7
157	5	21	-8	-10
157	10	16	6	-15
157	18	19	1	-13
158	20	22	3	-11
158	16	24	11	-21
158	12	19	7	-19
157	10	17	9	-10
157	10	19	12	-4
158	8	19	20	0
158	6	14	29	2
158	3	14	27	6
158	-1	17	24	-1
158	-1	16	5	-6
158	0	19	-24	4
157	0	16	-17	4
158	0	19	-5	0
157	0	19	-1	1
158	0	14	8	12
158	0	18	8	10
158	11	16	9	10
157	10	13	-4	19
157	3	17	-4	23
157	8	19	12	32
158	5	16	22	41
157	4	20	23	37
157	2	22	18	40
158	3	22	19	34
157	3	21	26	26
158	5	21	34	7
157	5	22	16	-29
158	6	21	4	-71
158	5	19	-13	-102
158	4	18	-44	-91
157	7	23	-35	-81
158	5	21	-15	-70
158	3	17	-13	-26
157	5	17	-10	3
158	7	16	2	21
157	5	19	54	35
157	7	17	107	44
157	6	16	81	52
157	5	16	25	41
158	5	14	13	23
157	8	15	10	9
157	8	19	1	-6
157	6	16	9	-21
158	5	13	8	-28
158	3	15	12	-22
157	8	17	7	-15
158	7	16	-8	-8
158	3	13	-19	2
158	2	15	-28	11
158	3	14	-11	17
158	2	15	3	18
157	5	15	4	15
158	3	10	-19	24
157	7	14	-38	31
157	5	17	20	25
158	3	19	31	25
158	5	19	-2	26
158	5	18	39	25
158	8	17	0	22
157	7	19	-56	10
157	5	25	20	-18
157	5	21	64	-24
158	4	20	9	-20
158	5	19	-1	-38
158	5	20	23	-29
157	7	21	24	-4
157	5	19	18	3
158	7	19	-6	7
158	4	19	24	11
157	2	15	51	8
158	1	14	36	7
158	5	21	19	2
157	9	24	-10	4
157	6	20	-16	13
157	9	21	-7	19
157	5	19	2	23
157	5	17	9	21
158	2	22	18	27
157	3	18	21	23
157	4	19	-1	10
158	3	20	-32	-1
158	5	21	-10	-17
158	3	19	26	-28
158	3	19	12	-18
157	9	24	-38	-11
158	11	24	-91	-1
158	7	19	-60	14
158	5	16	-30	15
158	2	16	-20	9
158	0	13	15	4
157	-1	18	2	-7
158	0	18	23	2
158	0	14	77	0
158	1	15	69	-14
158	6	18	58	-27
157	15	25	72	-41
157	17	26	61	-46
157	10	17	50	-56
158	3	9	25	-38
157	-3	10	18	-16
158	-1	17	23	-11
157	1	16	-2	3
157	2	15	-54	7
158	4	17	-74	6
159	5	18	-51	9
157	5	17	-71	22
158	7	17	-41	31
158	3	19	-31	48
158	3	21	-19	67
157	7	15	35	73
158	5	22	43	91
158	9	22	36	92
158	7	16	31	77
157	7	17	37	36
158	10	16	32	-33
157	13	27	-18	-113
158	7	29	-40	-175
158	0	26	-15	-173
157	1	24	-28	-124
157	-1	16	-11	-57
158	1	17	15	7
158	2	19	45	28
158	1	17	94	29
158	3	17	103	30
158	4	17	47	34
158	5	17	-26	32
158	6	15	1	32
158	3	15	11	31
157	3	19	0	28
157	4	18	17	39
158	1	18	10	40
157	3	18	48	34
158	1	19	53	24
158	4	18	6	8
158	8	17	4	-12
157	5	20	55	-27
158	11	20	39	-23
157	21	23	-5	-21
157	14	21	-22	-5
158	5	21	-39	4
157	11	19	-27	15
158	5	15	-2	24
157	0	16	19	19
157	-10	18	6	14
158	-15	19	17	7
158	3	14	28	4
158	10	14	-28	9
158	13	15	-65	7
158	14	11	-56	6
159	17	17	-27	22
157	27	19	-27	25
158	22	22	-20	17
158	15	22	1	6
157	12	14	30	-2
158	7	13	74	-5
157	1	13	73	-10
158	-1	13	99	-5
157	0	13	109	-7
158	0	13	20	-3
158	-1	23	-27	0
157	3	20	-23	-4
158	-1	14	-79	-8
158	3	21	-137	-6
158	6	25	-113	-18
157	0	18	5	-34
158	0	15	89	-22
157	0	19	72	-9
158	0	17	-51	-3
157	-8	15	-70	-11
158	-14	18	15	-2
157	-13	19	10	5
157	-5	19	62	1
157	3	18	53	8
157	4	20	37	9
157	10	19	74	11
158	26	19	24	11
157	37	22	4	17
157	28	26	5	35
157	12	26	-6	41
157	6	19	-22	37
158	8	17	-29	31
158	3	9	6	15
158	-2	9	34	-37
158	-3	16	45	-67
158	-1	22	23	-52
157	4	22	-7	-17
157	5	19	-29	7
158	6	20	-83	12
158	5	20	-57	0
158	3	26	107	6
158	8	30	235	10
157	8	28	104	7
158	5	22	-56	7
159	5	15	20	-4
157	3	8	-32	-1
158	-3	8	-48	-15
157	-1	19	-33	-22
158	4	19	-48	-28
158	5	17	6	-43
157	3	14	-12	-41
158	3	15	-9	-18
158	5	18	-24	11
157	8	19	58	15
157	6	21	39	30
157	7	21	-44	41
158	6	17	-11	53
157	2	15	-43	64
157	3	17	-21	52
158	-4	17	6	47
158	-15	19	52	40
157	-13	14	84	24
157	0	16	44	0
158	7	17	28	-31
158	11	17	-10	-73
158	15	21	-19	-100
157	20	25	-11	-77
157	24	21	-6	-35
158	20	18	34	3
157	14	23	54	8
158	11	22	27	-5
158	14	26	43	-7
158	8	22	-23	-17
158	3	18	-34	-12
158	2	21	36	6
158	3	22	-4	10
157	4	21	16	4
158	5	15	52	4
157	5	14	39	27
158	3	18	-31	42
157	0	19	-9	45
158	1	15	-3	37
157	2	15	-12	46
158	5	18	45	59
157	5	15	41	50
157	1	17	29	49
157	2	21	-65	32
159	2	21	-100	-2
158	1	16	-42	-34
158	4	21	-69	-86
158	5	19	4	-102
158	4	15	86	-59
158	1	17	-7	-39
157	3	21	-26	-26
158	0	18	-41	-1
158	1	16	-29	12
157	4	16	12	21
157	4	17	0	23
157	2	21	43	22
157	2	21	27	23
158	3	15	-26	28
158	5	15	-43	27
157	7	19	18	29
158	7	18	118	25
158	7	20	168	22
158	4	18	35	16
158	5	9	-14	-1
158	1	7	48	-2
158	0	10	-7	-9
158	5	17	-7	-32
158	2	14	-47	-37
157	2	15	-6	-18
158	11	21	16	-6
158	17	19	-27	14
157	10	20	11	24
157	9	19	58	20
158	12	13	130	20
157	8	6	81	7
158	5	14	-14	4
157	5	18	-55	4
158	8	17	32	-6
158	11	25	84	-14
158	12	24	8	-32
157	7	19	-37	-35
157	10	18	-97	-27
158	12	25	-26	-24
157	6	24	60	-29
157	6	26	12	-10
157	7	28	-16	3
158	4	20	4	-1
158	3	22	-25	17
158	3	18	-38	9
157	-1	15	-24	15
159	1	23	-54	30
158	2	18	-51	31
158	1	19	-18	41
158	2	17	26	65
157	1	12	21	70
158	3	13	-7	63
159	1	16	-21	60
157	1	17	21	46
158	1	22	59	21
158	5	23	6	-20
158	10	19	-5	-59
158	8	17	0	-104
157	10	19	6	-141
158	4	17	19	-145
158	3	17	42	-59
157	5	25	25	-16
157	-2	15	-17	-39
157	2	19	-15	-26
158	5	22	1	-12
158	3	22	103	33
157	8	21	119	42
157	7	18	78	40
157	3	19	30	36
157	3	16	-20	34
158	7	16	-2	28
157	5	14	-7	19
158	4	13	-6	38
158	6	12	69	28
157	6	14	85	33
157	3	14	-11	29
158	-2	18	16	10
158	3	24	13	-2
158	4	26	14	-25
157	5	27	-27	-47
158	11	21	-57	-38
157	4	19	4	-37
158	-14	15	-81	-16
158	-18	13	-103	22
159	-3	12	-71	13
157	2	8	-43	22
157	5	12	-132	20
158	9	11	-178	19
158	18	6	-50	17
158	31	13	89	11
158	27	19	156	15
157	11	17	74	8
158	1	21	176	7
157	4	21	188	14
158	2	22	72	15
158	5	27	29	-6
157	15	28	-35	-6
158	22	24	-22	0
158	11	19	-41	10
157	7	17	-45	10
157	7	12	2	15
158	7	18	91	15
158	8	13	103	15
158	3	8	0	19
158	3	19	-6	13
157	5	22	-15	18
159	4	20	-34	13
158	3	17	-16	9
158	2	17	-25	-2
158	-1	15	-54	-15
157	-4	15	-51	-30
157	1	19	20	-38
157	0	18	54	-41
157	5	18	-14	-36
157	4	24	-61	-13
158	5	22	-2	-4
158	7	19	19	16
158	7	20	45	13
157	5	19	93	-4
157	10	24	82	-4
157	11	22	40	-4
158	4	24	-1	8
158	7	18	-6	6
158	5	13	-32	12
158	7	12	-22	28
158	5	17	10	26
157	3	19	6	26
157	2	16	-21	27
157	0	14	-20	27
157	0	13	-18	28
158	1	14	-24	29
157	3	18	-34	29
157	3	23	-62	7
157	3	19	-36	-35
159	2	18	-7	-65
158	1	16	29	-85
158	4	23	13	-90
157	6	26	47	-63
157	-1	18	149	-52
158	-2	21	141	-62
158	0	20	131	-31
157	3	20	42	11
157	5	22	-58	7
158	5	21	-106	15
157	5	20	-105	25
158	5	21	18	29
157	4	14	57	43
157	2	9	13	33
158	4	16	-14	43
157	9	19	-23	44
157	3	14	29	36
158	7	15	57	22
158	8	18	54	2
158	8	23	16	-16
158	7	19	-22	-7
158	10	22	27	17
157	13	21	38	-2
157	9	20	-9	-1
157	10	23	-35	8
158	7	21	-45	7
158	6	19	-47	3
158	3	18	-45	1
158	-7	22	15	6
158	-17	19	41	-1
158	-8	21	26	-12
157	4	18	77	-13
158	7	22	-58	-16
158	14	22	-179	-10
158	12	20	-36	-2
158	18	18	117	-5
157	21	13	117	4
158	16	18	9	11
158	9	19	93	12
157	5	15	56	15
157	5	14	2	12
158	2	17	32	34
158	3	18	10	44
157	1	15	31	40
158	2	19	-18	50
158	5	18	-29	26
158	3	14	-99	-6
158	3	16	-82	-35
157	4	17	-30	-59
158	3	16	-49	-63
157	2	24	-19	-39
158	1	18	47	-16
158	1	17	122	-9
157	1	17	62	16
158	3	17	0	20
157	7	19	46	17
157	4	15	8	-2
158	0	15	-63	-23
157	1	14	-27	-14
158	1	17	-5	-14
157	3	17	-11	6
157	5	22	-14	16
158	8	25	-36	23
157	7	21	-1	25
157	1	15	93	10
158	3	19	116	6
158	8	23	82	-8
158	8	17	15	-29
158	11	19	12	-48
158	13	18	8	-36
157	6	13	-25	0
157	6	19	-12	3
157	8	21	-20	7
158	3	14	29	15
157	2	17	35	11
158	8	22	-4	13
157	8	20	-17	11
157	4	14	-47	8
158	3	12	-8	12
157	-1	21	71	29
157	4	21	96	27
158	14	15	61	22
157	14	9	43	9
157	16	15	12	-2
157	8	26	-95	0
158	3	29	-112	2
158	5	25	5	4
158	4	23	2	7
158	5	23	-28	10
158	7	19	-16	14
158	4	18	-68	13
158	2	20	-35	-5
157	3	22	-21	-19
158	6	21	-54	-18
157	5	25	-56	-19
158	4	22	16	-23
158	4	14	94	-15
159	4	17	58	9
158	5	15	83	21
157	7	16	62	25
158	5	16	44	12
157	3	11	88	7
158	1	13	72	22
158	5	19	124	31
158	4	21	146	26
157	4	18	87	16
158	3	19	-6	-2
158	4	18	-96	-34
157	2	15	-161	-45
158	1	19	-197	-56
157	2	16	-65	-50
157	-2	12	95	-16
157	4	22	145	-1
158	5	20	30	16
158	7	14	-17	40
158	7	14	80	38
158	6	14	26	29
157	3	16	2	16
157	3	17	-37	-7
158	5	19	-45	-11
158	8	18	-42	4
157	12	19	-77	2
158	10	16	-58	-33
157	8	12	-100	-59
158	7	16	-25	-52
158	5	16	73	-23
157	5	22	50	-2
158	6	22	45	1
158	8	18	34	7
158	10	20	-15	13
158	11	25	-17	14
157	5	17	24	6
157	0	15	8	2
157	-4	16	6	5
158	-13	12	39	9
158	-8	19	54	11
157	-1	18	71	12
157	3	24	37	18
157	8	25	37	16
157	5	21	9	14
157	13	19	-7	19
157	21	19	-4	20
157	21	24	-24	19
158	8	21	-11	11
158	-14	19	-30	6
158	-9	13	-4	4
158	9	18	12	10
157	12	23	41	15
158	10	18	42	18
156	14	14	19	23
158	17	9	10	16
157	18	17	-20	11
158	16	18	-28	6
158	10	19	-59	0
158	11	25	-47	-9
157	14	27	-26	-28
157	10	21	-18	-46
158	-3	16	-17	-40
158	4	19	-39	-1
158	10	19	0	11
158	3	19	45	19
158	5	17	60	23
157	5	15	32	14
157	1	15	50	9
158	-3	14	86	-4
158	1	15	49	2
158	5	22	8	0
158	3	18	6	-6
158	1	14	-12	-9
157	5	15	-84	-24
158	-1	11	7	-26
158	0	18	91	-9
158	0	15	96	-10
157	-3	15	77	-15
158	4	16	24	-16
158	3	12	16	-5
157	4	15	-10	4
158	1	23	27	6
158	1	13	59	7
157	2	13	10	4
158	2	25	-79	23
158	9	26	-59	37
158	5	22	7	35
158	1	17	-49	31
158	1	15	-105	32
158	2	18	-112	29
157	3	15	-9	-6
157	3	13	41	-35
157	3	15	46	-45
157	3	17	40	-48
157	3	24	2	-25
157	2	20	65	-13
158	5	16	62	-4
157	7	21	65	-8
157	8	20	54	-17
158	6	22	-6	-12
157	6	19	-44	-8
157	4	18	-70	2
158	2	22	-24	12
158	3	19	-18	12
157	2	15	-5	25
157	7	22	16	28
157	9	22	-4	29
157	3	17	10	39
157	5	18	-2	33
158	8	19	-1	30
157	7	18	6	26
158	8	17	12	5
158	8	16	39	-17
158	8	12	30	-37
158	5	16	20	-18
158	4	21	48	-5
157	6	18	57	-14
158	7	26	42	-4
157	9	26	24	-26
158	7	22	-35	-16
158	6	21	-39	0
158	5	19	-16	-10
157	3	23	-15	3
158	3	19	5	2
158	4	17	-13	0
158	5	19	-24	4
157	5	19	-35	11
157	7	17	-59	16
158	3	17	-26	18
157	3	15	8	19
157	5	18	48	8
158	3	17	103	7
158	3	11	145	8
158	5	17	91	18
158	3	21	-7	20
158	-1	16	8	7
158	3	17	-36	0
157	5	22	-64	-13
158	2	20	-38	-23
158	4	18	-20	-33
158	5	14	14	-28
157	5	15	46	-11
157	5	17	104	-2
157	3	9	81	2
157	3	15	35	2
157	7	24	10	9
157	11	20	-16	15
158	12	19	-32	12
158	13	19	-58	-1
158	8	16	-40	-4
157	3	15	-19	4
159	5	14	-38	7
157	3	15	-51	3
159	4	14	22	4
157	-3	15	43	11
158	-10	18	20	12
158	-6	18	38	9
157	-7	17	17	21
157	3	23	13	30
158	7	24	15	43
157	13	21	-6	54
158	28	28	-13	38
157	24	26	-13	1
157	17	26	24	-36
157	20	27	56	-77
158	20	21	30	-86
158	12	15	4	-33
157	7	18	-30	-10
158	7	24	-25	-24
157	7	19	-17	-16
158	0	15	9	-22
157	-3	14	-4	-24
158	-2	17	-33	-21
157	-5	15	40	-4
158	-6	19	72	15
158	-3	19	82	28
158	1	17	107	30
157	5	17	103	23
157	1	16	103	26
157	-10	19	91	27
157	-18	24	9	23
157	-11	17	-6	13
157	-3	9	16	6
157	7	16	-104	9
157	19	20	-156	9
158	20	17	-94	2
158	27	17	-116	0
157	24	21	-47	-7
158	17	27	-11	-7
158	16	31	-15	-14
157	10	23	40	-9
157	4	13	-1	2
157	3	9	21	16
158	1	15	6	17
157	0	15	-35	22
158	-3	11	-36	20
157	-1	19	-38	9
157	3	22	-7	-2
157	0	13	19	-28
158	1	15	48	-38
158	-1	16	68	-35
158	0	12	-2	-16
159	1	16	-56	-19
157	2	19	15	-6
158	4	15	21	9
157	5	16	13	5
157	5	16	48	7
158	5	19	54	8
158	3	23	47	16
158	5	18	27	13
157	6	18	1	19
158	7	21	16	26
157	9	17	38	27
158	5	20	-11	28
157	7	21	-19	26
158	7	21	-49	21
157	4	15	-86	7
158	0	15	-39	-2
157	5	19	18	3
158	8	22	89	4
158	6	15	134	-3
158	7	16	163	12
157	6	24	169	19
158	5	23	86	16
158	1	18	2	6
158	1	12	-55	-13
158	5	18	-100	-17
158	2	20	-134	-33
158	2	16	-126	-58
157	5	21	-72	-60
158	2	20	-49	-36
158	5	17	40	-10
158	5	18	90	-4
158	5	19	35	8
158	7	19	-86	2
157	5	17	-75	7
158	4	15	55	12
157	5	17	18	4
158	5	18	23	20
158	7	18	157	25
158	8	16	140	9
157	5	19	94	0
158	6	18	80	7
158	9	16	81	16
158	7	12	65	14
158	4	13	-15	21
157	0	14	-45	26
158	-5	11	-52	5
157	1	17	-38	-17
157	8	19	-53	-39
157	8	19	-23	-44
158	13	23	-16	-3
157	10	23	-24	8
158	2	19	40	9
158	0	18	47	13
158	-8	18	1	9
158	-8	15	-30	11
158	0	18	-36	7
158	-5	15	-36	15
158	-10	16	-1	4
158	-1	15	19	2
157	16	15	49	0
158	28	18	54	-1
158	30	25	39	4
157	27	19	43	-16
157	31	17	-52	-20
158	32	29	-39	-1
157	24	26	9	0
157	14	23	-33	13
157	11	24	-81	30
157	8	17	-102	32
158	3	17	-39	26
158	-5	19	11	20
158	-2	19	31	16
158	-4	20	27	7
157	1	24	5	-6
158	0	24	-9	-25
158	-4	23	-17	-36
158	-3	19	-28	-47
157	-5	15	21	-65
158	-2	17	66	-57
158	-3	15	37	-17
158	-2	15	99	5
158	-3	13	141	12
158	0	11	38	20
158	2	13	-42	31
157	1	14	-19	36
158	1	13	-6	39
158	3	19	-77	37
158	3	17	-50	22
158	1	14	5	8
158	1	15	12	-7
157	2	11	81	-14
157	7	15	87	-5
158	5	16	36	-3
157	3	17	19	6
157	1	19	17	9
158	3	20	-20	10
158	7	24	-32	8
157	5	25	-6	-4
158	5	28	-2	-5
158	3	26	10	-8
157	3	16	0	2
159	7	11	-12	6
158	8	15	-23	8
158	10	18	-17	11
157	8	19	-1	2
157	10	21	2	10
157	8	17	26	9
158	9	16	56	0
157	4	15	105	-1
158	2	17	75	-2
157	7	22	-22	-2
157	8	26	-38	4
158	5	21	-36	13
158	4	16	-55	8
157	2	19	-67	-5
158	1	21	-106	-13
157	4	22	-116	-15
157	6	17	-29	-10
158	2	11	13	-25
158	-1	13	11	-28
157	4	24	136	-14
157	4	18	171	-3
158	3	18	135	2
158	9	22	127	2
158	8	19	63	8
157	7	22	59	4
158	5	19	42	8
158	3	15	-13	25
157	5	17	-31	37
158	3	17	-41	34
158	5	20	-33	29
158	5	20	-10	28
158	9	18	19	18
157	9	20	30	6
157	7	19	-11	-7
157	6	19	-23	-18
157	8	20	-5	-38
158	7	21	12	-19
157	4	22	10	17
157	2	13	-18	10
158	-1	10	-3	16
158	1	16	-28	2
158	5	21	-59	-15
158	11	20	-12	-30
157	9	22	33	-53
157	8	15	103	-56
157	6	10	48	-37
158	5	13	-33	0
157	3	14	-34	10
157	3	17	-96	16
157	5	21	-81	16
158	8	17	-32	4
158	4	12	-5	-13
157	2	15	22	-21
157	5	15	21	1
157	4	17	-41	2
158	-4	17	-68	4
158	-6	19	-39	17
158	-5	19	-14	16
158	-4	14	125	8
158	5	14	221	6
157	18	21	161	23
157	35	26	40	27
158	31	23	-3	34
157	14	27	-27	18
158	11	27	-30	4
159	8	22	-5	-7
158	11	22	15	-12
157	12	19	33	-17
158	1	15	-27	-21
158	3	19	-90	9
158	4	18	-44	4
157	1	14	32	6
157	-3	14	-4	10
157	-3	15	17	4
158	-5	15	12	9
157	-8	18	15	7
158	-20	19	0	15
158	-17	17	-31	14
157	-6	12	18	9
157	5	18	-34	5
158	13	14	5	2
158	12	8	19	4
158	20	18	41	10
158	28	19	70	9
158	22	20	13	5
158	15	21	32	10
157	11	18	15	16
158	9	15	12	12
157	5	15	1	3
158	1	12	-47	-2
157	1	15	-99	-5
157	4	18	-42	-13
158	1	17	50	-13
158	1	22	11	-20
157	1	24	57	-24
157	7	22	143	-8
157	4	19	92	9
157	4	17	45	23
158	1	16	37	25
158	-1	19	-15	15
157	2	20	-14	11
157	-1	20	-28	4
157	2	19	-23	-14
157	3	18	22	-20
158	3	24	38	-19
159	4	24	48	-24
157	4	20	37	-30
158	2	16	86	-29
158	3	22	36	-11
158	3	23	-39	3
158	5	19	-51	14
157	8	18	-116	32
158	4	25	-95	32
157	4	19	-60	26
158	5	19	-64	27
158	3	19	-44	3
157	4	16	1	-1
157	8	18	20	-5
158	8	19	-7	-14
158	6	25	1	0
157	9	24	39	-14
157	8	25	41	-32
157	9	19	21	-48
157	8	22	17	-49
158	9	24	10	-18
158	5	15	15	10
157	0	11	30	17
158	1	10	-17	31
158	0	13	-37	26
158	2	19	-5	22
157	3	17	-18	11
158	0	14	44	1
158	-1	15	83	4
158	11	15	42	-4
157	15	13	41	3
157	5	19	33	7
157	8	21	0	10
158	8	22	-13	13
158	4	23	37	20
157	6	23	35	24
157	7	24	29	19
157	10	22	20	9
157	8	21	-11	0
157	7	19	-22	-3
157	5	14	-21	-6
158	4	17	-32	-10
157	5	22	-19	-7
157	5	17	87	-9
158	6	20	81	-6
157	8	22	-3	-12
157	10	18	-51	-21
158	10	19	-64	-24
157	5	16	4	-16
157	3	10	143	1
157	5	13	159	-3
158	3	17	-41	10
157	4	17	-22	15
158	6	15	17	14
157	4	13	-34	22
157	8	15	-32	30
158	15	19	-57	30
158	14	14	-6	25
158	10	15	-24	22
157	5	17	9	7
158	1	16	27	-1
157	-3	18	1	-10
158	2	20	5	-15
157	5	17	12	-26
157	3	17	35	-24
157	5	16	38	-18
158	6	16	31	-10
158	5	22	-13	2
157	4	19	38	5
157	8	17	68	-1
157	2	16	30	-3
158	3	15	-5	0
157	4	21	-58	-10
158	4	21	-47	-4
157	3	17	-34	-1
157	2	21	-63	2
158	2	19	-41	8
158	1	15	-14	13
157	4	18	18	18
158	4	17	40	18
157	3	17	5	20
158	3	13	-29	20
158	5	11	-43	23
158	5	15	-50	29
158	4	19	-41	30
157	7	16	41	16
158	6	22	37	-5
158	3	21	-11	-34
157	3	15	7	-48
158	0	18	-12	-17
157	1	15	28	2
158	3	17	73	0
157	6	21	125	6
158	5	24	89	-4
159	5	22	47	-8
157	4	18	79	-27
157	3	21	27	-57
158	3	23	9	-39
158	5	23	-29	-24
157	8	23	-11	-32
158	4	22	-27	-14
157	3	21	-84	4
157	3	21	-10	13
157	6	17	-18	23
157	7	20	-27	25
158	10	19	10	31
158	11	20	47	30
158	11	17	82	20
158	8	17	65	17
158	8	12	59	7
158	5	11	30	4
157	4	15	31	0
158	1	13	67	8
157	7	19	42	18
158	7	13	23	14
158	4	10	-6	6
157	1	10	-36	2
158	1	13	-50	9
158	2	18	-37	7
158	3	14	-30	16
158	3	16	-51	19
157	2	16	-53	14
158	2	18	-35	16
158	1	17	-20	14
158	3	18	-9	10
157	4	18	13	6
158	8	18	27	14
158	5	19	84	9
158	4	23	121	-3
158	9	21	22	-12
157	8	22	4	-28
158	11	23	32	-36
158	9	21	-18	-44
157	9	22	-32	-37
158	5	19	-80	-43
157	1	22	-77	-39
157	0	19	-38	-18
157	2	16	-31	-13
158	-1	20	-5	3
158	-12	24	17	6
157	-9	19	50	15
157	-3	19	33	23
158	-2	21	8	17
157	-3	19	-7	19
157	2	23	37	11
158	16	17	95	6
158	25	21	46	13
158	34	25	-10	13
157	32	24	-41	13
157	29	19	-44	19
157	31	19	-56	19
157	30	19	-43	22
157	21	20	4	26
159	11	21	9	26
158	4	20	-21	20
158	-5	20	-6	6
157	-11	17	84	9
157	-9	10	139	17
157	-6	11	96	7
157	-4	13	24	3
157	-7	18	-1	-14
157	-7	21	28	-36
158	-1	16	34	-38
157	4	15	8	-39
158	2	21	-4	-21
158	-1	22	-12	0
158	1	22	-1	6
157	4	23	15	5
158	1	23	19	9
157	3	19	24	6
158	1	19	50	-2
158	1	19	32	-2
158	3	21	-1	0
158	3	19	16	-5
157	2	16	24	-13
158	2	14	8	-18
157	3	13	-62	-16
158	1	17	-91	-3
157	5	18	-29	0
158	6	19	37	12
157	7	17	44	14
158	4	13	-12	11
157	5	18	-35	17
158	6	22	-5	11
157	5	19	-41	10
157	6	22	-47	11
158	5	18	18	23
158	5	13	1	17
158	3	17	24	14
157	6	23	41	20
157	10	17	41	8
157	5	15	35	-5
158	7	19	-29	-18
158	8	19	15	-26
159	3	19	43	-18
158	5	19	-24	-7
159	5	22	-45	-8
157	6	18	-26	11
158	7	17	-12	21
157	3	17	-27	8
157	2	17	-36	13
158	2	15	-21	14
158	3	8	29	6
158	1	9	87	-4
157	4	13	60	-17
158	8	19	52	-24
158	7	22	42	-28
158	10	24	-6	-30
158	7	15	-7	-16
158	5	11	-14	1
157	5	18	-33	11
158	4	15	-47	18
158	5	15	-18	19
158	3	15	64	19
157	6	17	84	16
157	5	19	29	-6
158	8	22	31	-40
158	5	23	32	-34
158	7	22	19	-1
157	7	21	15	11
157	6	14	21	7
157	4	14	52	2
157	5	21	-2	1
158	8	18	-30	9
157	6	17	-53	14
157	5	18	-58	24
157	8	18	4	26
157	7	18	-8	15
158	5	19	-28	8
158	5	18	-9	3
157	2	15	33	-6
158	3	12	94	-2
157	8	13	108	17
158	8	16	-13	14
157	3	12	14	10
158	3	15	87	7
157	5	17	7	-4
158	3	17	-48	-12
158	5	24	-84	-30
157	5	22	3	-42
157	3	21	9	-30
158	4	19	-25	0
158	3	17	22	11
158	5	15	26	15
157	5	11	38	10
157	5	15	36	3
158	5	17	74	5
157	3	21	40	2
158	6	23	-63	-3
158	1	24	-39	3
157	5	25	-16	4
158	10	22	-67	5
157	11	25	-92	15
158	13	17	-35	16
158	17	21	12	24
157	15	26	10	29
157	4	17	36	11
158	5	18	69	-2
158	5	14	48	-15
157	6	12	0	-28
157	10	15	-8	-18
157	5	17	6	-12
157	3	16	16	-13
158	1	20	42	-3
158	0	20	95	9
158	0	15	42	18
157	4	17	-13	23
158	-3	17	-8	19
157	-5	19	-36	9
158	-5	22	24	9
157	-11	19	80	13
158	-6	17	33	12
157	-6	15	8	-2
157	3	16	33	-16
158	7	16	12	-19
158	12	24	-15	-29
157	23	24	-41	-30
158	31	25	-43	-27
158	26	29	-20	-22
158	15	24	-24	-10
157	15	24	-32	-7
158	11	22	-8	3
158	8	21	15	10
158	7	17	-28	11
157	6	19	-25	17
158	5	20	6	24
157	3	17	42	22
157	1	17	41	19
158	-2	15	2	13
158	-1	14	17	16
158	-1	15	31	18
157	0	15	25	3
157	-5	11	-41	0
157	-3	15	-72	10
158	-1	18	-28	2
157	-1	15	-15	0
158	2	23	-14	15
157	5	19	43	22
158	4	15	64	12
158	4	19	42	-7
157	5	19	19	-25
158	1	17	-10	-27
158	3	15	7	-19
157	3	11	8	-1
158	-2	12	34	-11
157	1	17	51	-23
157	3	14	29	-17
157	8	14	6	-16
158	9	14	8	-4
157	7	12	11	2
157	11	14	-4	4
159	10	15	3	8
157	10	15	15	11
158	10	15	30	11
158	8	17	24	15
158	9	23	-2	19
158	8	27	-34	18
158	8	23	-5	27
158	5	21	31	35
159	4	24	-6	40
158	5	22	-27	42
158	5	20	-39	21
158	4	15	18	-16
158	0	14	127	-48
157	2	17	111	-42
157	7	17	67	-11
157	6	21	8	-22
157	11	24	-32	-24
158	9	20	5	0
157	5	15	6	-3
157	2	11	57	9
158	1	13	16	-4
157	1	21	-93	-17
158	3	15	-89	-12
158	1	15	-78	-6
157	1	23	13	-6
157	4	21	60	-9
158	9	17	39	-3
158	5	22	34	15
157	5	21	-10	24
158	4	19	-15	21
158	1	18	13	24
157	3	18	46	19
158	3	18	25	10
158	5	15	21	-1
158	4	15	1	-4
158	7	21	-47	-11
158	4	18	-20	-13
157	-1	16	-12	-11
158	1	17	-50	7
158	9	24	-35	19
157	5	18	16	14
157	3	17	22	3
158	7	19	45	-17
158	2	15	19	-28
159	12	20	7	-38
157	20	19	1	-14
158	11	24	7	7
158	9	28	45	9
157	11	23	0	12
158	6	19	33	4
157	4	15	-32	8
158	7	18	-72	18
158	8	19	-12	23
157	8	21	-5	20
158	5	18	17	19
158	8	18	-5	26
158	4	14	11	6
158	2	15	-1	-15
158	7	19	-15	-11
158	11	20	-3	-9
158	12	22	25	-5
157	8	15	75	4
158	3	15	47	18
158	0	16	29	23
157	-2	17	56	11
157	3	15	67	-6
157	1	20	14	-24
158	1	21	50	-32
158	1	15	95	-8
157	-2	20	-8	9
157	4	18	-53	-1
157	6	19	-1	-5
157	4	21	-15	-6
157	6	19	-16	-7
158	5	17	10	-9
158	1	17	7	1
158	3	22	-31	5
157	1	23	-67	3
157	0	13	-32	4
158	0	11	-56	6
157	1	21	-30	14
158	3	17	23	14
157	1	15	29	12
158	2	11	32	14
158	6	17	16	24
157	10	24	15	27
158	11	19	-7	26
157	11	19	-15	23
157	3	17	-49	12
157	0	17	-24	1
157	1	16	-3	-3
157	-1	16	21	-10
157	1	11	79	-25
157	5	18	35	-28
157	5	21	73	-34
157	8	17	118	-36
157	10	21	81	-23
157	10	23	73	-13
158	11	25	58	-2
157	9	23	0	-2
157	5	18	-38	-7
157	5	17	-73	-7
157	7	21	-65	-15
158	5	16	-19	0
157	8	17	-26	17
157	7	17	-12	21
157	7	14	5	23
157	6	15	32	11
157	7	19	65	9
157	5	18	49	12
157	3	17	-6	7
158	1	13	-23	0
158	0	13	10	-2
158	-3	18	38	0
158	2	17	6	-8
158	4	23	-43	-7
158	4	21	-39	4
158	4	15	-69	10
157	4	19	-43	14
158	5	18	-15	15
158	7	17	-23	19
157	5	16	-20	16
158	4	17	14	15
157	8	19	60	14
158	7	23	-24	16
158	8	18	25	26
158	5	16	160	25
158	5	22	113	13
158	5	20	72	0
157	2	16	65	-17
158	1	17	34	-40
157	3	18	41	-54
158	4	18	16	-30
157	1	15	-50	10
157	3	17	-140	23
157	7	19	-165	26
158	5	19	-79	26
157	6	25	-51	27
158	10	28	20	15
158	7	19	78	-14
157	7	19	58	-51
158	12	22	71	-79
157	17	24	27	-77
158	8	23	21	-27
157	5	19	30	2
157	2	14	27	1
158	2	15	-9	16
158	9	15	-49	13
158	7	13	-12	16
158	7	18	0	10
157	5	15	22	7
157	9	18	10	6
157	8	19	19	6
158	6	15	33	26
158	7	21	19	28
158	3	22	25	29
158	0	21	31	21
158	0	19	67	4
158	1	15	35	6
158	3	15	-43	7
158	5	20	-56	-5
157	6	17	-39	-9
158	7	22	-45	-13
158	4	15	-30	-12
157	4	15	-2	-1
158	8	19	36	15
157	12	20	23	31
158	11	19	21	37
157	6	15	44	30
157	4	13	23	11
158	1	19	-2	-6
158	7	24	-45	-22
157	9	19	-56	-33
159	10	22	-65	-25
158	7	18	-27	-21
158	4	17	-22	-9
157	9	16	14	0
157	-8	14	121	-1
157	-23	14	97	6
158	-15	18	61	11
158	-6	19	38	19
157	-1	15	21	17
157	3	19	33	22
158	8	15	15	21
157	18	14	-28	9
157	21	15	-61	-1
157	15	17	-28	-12
157	12	21	-6	-24
157	14	20	15	-18
157	19	20	48	0
158	26	25	53	2
158	18	28	53	8
157	4	26	53	2
157	2	23	24	2
157	0	19	-2	2
158	0	22	7	-7
158	1	23	-18	0
158	1	21	-50	7
158	-1	18	-10	7
158	-4	20	20	-3
159	-1	20	26	-11
157	0	19	46	-2
158	1	18	2	13
157	1	14	-22	4
158	-1	19	-6	-6
157	-1	14	-6	0
158	-2	12	9	7
157	0	15	12	4
158	3	14	7	-2
157	1	15	0	2
157	3	16	-1	5
157	3	18	-22	9
157	4	16	-32	7
158	8	13	-27	-1
159	3	11	-22	-1
158	5	13	1	2
157	5	13	18	7
157	6	16	45	18
158	7	15	51	15
157	8	18	41	16
157	14	18	21	14
157	11	18	14	12
157	10	21	11	11
157	8	22	-4	-6
158	5	24	-19	-26
158	5	17	-35	-41
157	4	17	-18	-50
157	7	21	-17	-38
158	5	22	-47	0
157	8	19	-39	11
157	14	19	-31	11
157	8	10	8	9
157	1	4	144	6
158	5	7	149	19
157	7	14	-10	16
158	12	25	-35	0
157	8	18	23	-7
158	3	17	2	8
158	7	18	53	-1
157	3	17	5	-8
158	4	22	-42	-6
157	4	22	33	-12
158	4	24	0	-2
158	6	23	-8	-4
157	7	19	-16	0
157	4	21	-7	7
158	5	20	2	9
158	7	20	3	8
158	7	19	12	12
157	1	19	11	7
158	3	18	51	-3
158	9	21	92	-3
157	4	19	110	-12
157	4	19	-21	-10
157	9	25	-98	1
157	4	19	-28	8
158	2	24	-40	-2
157	1	18	-15	2
158	2	18	9	-8
157	1	19	-2	-16
158	2	18	-3	5
157	3	17	-23	11
157	4	18	-15	13
158	4	21	-17	14
158	5	17	51	7
158	4	21	60	-5
158	9	25	-4	-6
158	4	20	14	-1
157	1	17	1	-5
157	-2	17	-4	0
157	-12	14	-24	11
157	-19	16	-30	16
158	-9	13	-20	23
157	10	17	-62	21
157	13	20	-10	15
158	12	15	32	10
158	15	19	61	1
157	16	14	130	-5
157	15	17	132	-6
158	20	23	37	6
157	21	30	-2	17
158	23	32	66	23
157	16	28	57	18
158	9	21	16	8
158	6	14	-6	-7
157	3	17	-11	-7
158	1	14	-53	4
158	0	14	-77	-2
158	-3	14	-45	7
158	-8	15	-24	15
157	-3	19	12	1
157	1	17	16	-9
158	-3	15	-8	-13
158	-2	14	-9	-11
158	-3	12	13	-8
158	-2	14	20	-15
157	5	11	26	-32
158	7	12	26	-36
158	5	17	29	-39
158	5	17	3	-23
158	9	22	-12	9
158	23	23	10	14
157	20	20	22	11
158	8	19	24	9
158	3	22	-16	11
157	-3	24	-49	4
158	1	22	-69	-1
158	1	19	-51	-2
157	3	19	-17	-1
157	5	21	-6	9
158	4	19	21	9
158	5	18	37	6
157	6	13	47	6
157	7	14	48	-3
157	9	20	23	-13
157	7	15	18	-13
157	3	13	14	-3
157	8	14	-12	9
158	5	18	-6	8
157	5	19	10	9
158	4	15	10	15
158	2	16	37	20
158	0	19	59	15
158	-1	19	13	8
156	4	14	19	7
158	3	14	19	10
158	5	16	-18	4
157	8	15	5	-5
158	8	18	0	-1
157	9	20	1	2
158	9	14	2	2
157	10	19	-33	2
157	5	21	-58	10
158	4	16	-43	10
157	3	17	-9	7
158	1	15	48	3
158	0	15	31	-2
158	1	19	2	10
157	3	21	37	22
157	3	22	31	20
158	7	24	28	16
157	7	23	2	0
158	4	21	64	-11
157	7	16	83	-18
158	4	11	10	-25
157	8	15	19	-12
158	10	27	-8	6
157	8	23	-8	0
158	7	19	23	-6
157	8	21	46	-16
157	5	17	77	-7
157	9	17	-4	-4
157	8	19	-19	-9
158	8	18	66	-1
158	7	17	37	10
157	1	17	-75	14
158	3	21	-83	-4
157	2	19	-23	-11
157	7	19	-35	-19
157	10	21	-43	-20
157	11	23	7	-28
157	10	23	57	-9
157	2	25	48	18
157	-1	19	31	11
157	-3	18	-18	18
158	-1	21	-96	22
158	3	19	-63	12
157	8	22	27	20
157	9	24	20	28
157	3	19	-67	25
158	5	25	-51	28
157	9	25	32	27
158	7	20	54	31
158	7	22	9	16
158	5	19	-5	2
157	3	18	4	-3
158	2	17	8	-29
158	-1	13	20	-49
158	-2	11	4	-44
158	-2	13	8	-29
157	0	13	97	-30
157	5	15	94	-29
157	7	21	-22	-19
158	5	18	17	-12
158	3	16	14	-10
158	4	16	-3	-2
157	5	15	20	3
157	8	17	-30	4
157	8	18	-25	10
158	5	15	-43	17
158	4	9	-38	31
157	4	10	-17	27
158	3	15	6	25
158	0	16	16	23
157	1	11	3	20
157	3	17	15	21
157	-1	17	20	16
158	4	18	83	16
158	15	24	89	8
158	15	24	47	2
157	6	22	31	-1
158	6	22	10	-2
158	7	19	54	6
158	8	21	78	2
158	10	21	56	-18
157	12	16	-5	-22
158	12	22	-35	-15
157	5	18	-14	-15
158	5	14	-30	-14
157	4	14	-36	-2
157	7	18	-19	3
158	5	16	16	-10
157	1	14	93	-7
158	1	18	77	4
158	3	17	-9	4
158	-1	18	-45	2
158	-2	19	-92	-4
158	-1	23	-39	7
157	1	24	-27	14
158	4	24	-51	10
157	3	22	-23	10
157	7	15	-42	15
158	5	17	-16	16
158	4	17	38	9
157	3	16	53	9
157	4	22	20	0
158	5	19	46	3
158	3	13	35	15
157	7	14	18	6
157	2	17	42	3
157	3	19	47	0
158	1	19	42	-15
158	1	17	30	-21
157	7	22	5	-12
157	4	20	-37	-10
158	7	19	-20	-3
157	3	18	-40	7
158	4	15	-45	11
157	3	11	-92	17
157	3	13	-79	18
158	5	14	74	13
157	3	14	194	4
157	-2	17	98	-1
158	-15	18	-100	-1
157	-15	21	-26	-1
158	0	19	20	2
157	8	18	9	10
157	13	15	-15	14
157	16	14	-46	21
157	22	15	-15	26
158	26	12	-15	13
157	28	17	11	0
157	22	22	29	-1
157	14	20	38	-11
157	13	25	-3	-25
158	7	23	49	-46
159	3	17	122	-62
158	1	17	134	-68
158	1	22	101	-63
158	1	20	78	-40
158	6	24	-3	-17
158	8	26	-67	10
158	1	16	-63	23
158	0	11	-143	19
158	0	15	-98	13
157	3	19	-36	21
158	4	21	-62	30
158	3	24	-65	32
158	4	24	-68	29
158	1	21	48	32
157	1	20	245	45
157	6	22	60	29
158	7	23	-18	18
158	5	22	86	-4
158	6	20	-10	-41
158	8	21	56	-47
158	8	23	-23	-27
157	12	18	-60	-27
158	10	9	-48	-12
158	1	7	-57	5
158	0	13	-8	0
157	-3	11	-25	15
157	-4	11	128	12
158	1	13	145	8
159	7	17	60	6
158	8	14	55	7
157	7	10	-37	11
158	7	16	-93	17
157	5	21	-69	19
158	7	25	1	22
157	5	19	34	24
158	8	20	5	13
158	8	18	23	-1
158	5	18	-17	0
158	5	18	-25	10
158	0	16	62	14
157	1	17	51	14
157	-1	18	2	14
158	3	22	10	17
158	3	17	10	16
158	1	19	29	11
158	2	19	18	-7
158	1	17	-74	-28
158	9	22	-91	-32
158	8	19	-6	-33
158	7	16	15	-21
157	13	17	24	-16
157	19	15	51	-22
158	6	15	15	-12
157	5	20	-24	12
157	7	19	-28	25
157	2	18	12	27
157	4	22	25	30
158	1	18	46	16
158	1	18	29	-5
157	-1	18	-16	-21
158	-1	18	15	-18
157	5	21	55	-23
158	7	21	42	-36
158	8	22	20	-7
158	10	23	33	7
158	5	18	27	12
158	1	12	34	22
158	5	17	65	13
158	8	22	57	15
158	11	19	16	1
157	2	13	-32	-4
158	0	13	-96	-5
158	8	16	-66	-7
158	8	17	-41	2
158	8	22	-113	7
157	3	24	-91	17
158	6	18	10	17
157	8	19	47	18
158	5	23	59	15
158	5	18	48	8
158	7	13	8	3
157	7	12	16	-12
158	7	12	-51	-20
157	6	15	-32	-21
158	1	19	105	-8
157	5	21	34	2
157	5	27	-9	3
157	5	19	16	2
157	4	16	-9	-9
158	2	24	6	-15
157	2	15	22	-15
157	1	15	60	-7
157	1	18	45	7
158	5	18	40	19
158	7	20	38	25
158	3	16	-1	32
158	4	18	-6	29
157	5	14	1	21
157	1	11	10	10
158	3	17	10	-2
157	1	17	19	-11
158	1	16	21	-23
157	0	15	29	-15
157	5	17	23	4
157	5	15	-2	0
158	3	13	-39	-12
158	3	15	-87	-18
158	3	16	-69	-15
157	5	21	-34	-2
158	8	23	-2	7
157	4	20	-6	13
158	7	25	-3	14
157	7	25	13	21
157	3	24	-62	31
157	4	19	-102	43
157	4	14	-52	37
158	-1	14	75	16
157	-1	14	158	4
158	0	18	35	-1
158	5	23	35	-19
157	8	23	109	-45
158	5	22	63	-57
157	7	22	58	-61
157	8	21	28	-37
158	8	21	32	-1
157	8	22	0	15
157	5	17	-20	21
158	4	15	-35	9
157	4	14	-48	-1
157	4	18	-7	-15
157	5	14	50	-29
158	4	14	82	-14
157	5	22	-7	-10
158	8	21	5	-14
157	8	18	32	-16
157	10	20	29	-7
157	10	18	-31	9
157	7	17	-27	12
158	14	19	39	17
157	17	22	-3	24
158	10	18	4	25
158	5	19	-17	19
158	8	18	-10	18
158	3	21	-17	23
158	5	22	-40	30
157	3	18	-56	34
158	3	19	-24	34
157	3	19	78	30
157	3	17	80	19
157	4	14	58	5
157	5	19	-44	6
157	10	13	-74	-2
157	5	17	-11	-19
158	1	20	-55	9
157	-1	15	-39	21
158	-2	18	-1	19
159	-2	23	18	4
157	2	22	54	-23
158	9	20	51	-48
158	9	18	70	-70
158	5	18	63	-50
157	5	18	-4	-28
157	3	20	13	-18
158	4	19	46	0
157	7	20	1	8
158	4	20	-22	16
157	4	17	1	19
157	2	14	33	26
158	2	13	36	27
158	6	19	-11	31
158	7	18	-8	30
158	5	19	-23	21
158	1	18	-83	21
157	0	15	-70	9
158	2	19	-57	-2
157	5	23	-6	-13
158	10	25	40	-21
157	14	21	107	-30
157	10	14	109	-18
158	5	16	61	4
158	7	20	45	12
157	7	17	-26	15
158	4	18	-5	15
157	6	19	-5	11
158	7	13	39	11
158	1	12	54	14
158	-2	11	8	11
157	1	10	26	7
157	1	12	13	10
158	3	11	23	10
157	8	14	15	5
157	3	13	-3	7
157	5	14	-18	9
157	13	18	-36	-7
157	14	17	-90	-22
158	6	18	-83	-38
158	-4	23	-29	-35
157	5	28	-79	-28
158	10	23	-94	-37
158	7	20	-4	-45
158	8	20	152	-29
157	12	23	132	-3
157	6	24	-53	12
158	9	22	-29	21
157	10	24	13	25
157	8	25	69	32
158	7	20	120	34
158	5	16	38	22
158	6	21	74	-1
157	10	20	56	-10
158	9	21	7	-4
157	7	18	-20	-13
158	5	18	-55	-11
157	5	18	-35	2
158	2	20	-25	0
157	1	20	13	2
157	-1	19	16	2
158	-1	17	13	4
157	-3	14	8	12
157	-2	18	-35	13
158	0	17	-50	19
158	-5	15	-58	11
158	-1	15	-44	8
157	1	10	16	10
158	5	12	86	-6
158	4	17	60	-4
157	4	25	33	-2
158	5	24	66	-1
158	-11	14	10	0
157	-17	12	-32	0
157	-6	21	-81	5
157	1	24	-121	6
158	7	21	-42	14
158	13	15	33	13
158	19	9	59	10
157	24	14	93	15
157	22	17	156	13
157	15	19	110	17
158	11	19	24	21
157	10	17	30	0
158	5	17	12	-15
157	10	23	10	-14
158	4	23	42	-18
157	3	17	30	-32
158	0	18	-19	-30
158	0	17	-63	-19
158	0	18	-57	-10
157	0	16	-50	-6
157	2	17	-20	2
158	1	19	18	16
157	8	19	30	15
157	5	18	40	17
158	3	21	14	24
158	2	23	1	14
158	5	22	-12	10
158	5	24	-26	18
157	8	22	-22	21
158	9	18	-16	14
158	5	13	10	-4
157	1	9	17	-22
158	4	15	66	-21
158	3	14	86	-15
157	0	17	23	-12
157	4	16	-33	-5
158	7	17	-83	2
158	9	19	-73	-7
158	12	18	-51	-19
157	15	16	-26	-24
157	11	19	8	-7
157	12	21	8	11
157	13	19	-6	16
157	8	25	-11	18
157	2	21	36	13
157	0	18	65	4
158	0	21	55	-12
157	2	25	41	-24
157	3	19	-20	-14
157	0	14	-41	2
158	2	15	-13	5
157	2	15	-4	7
158	3	20	25	13
157	5	14	52	10
158	5	15	92	19
157	4	18	42	25
158	5	21	6	38
157	4	25	24	44
157	-1	15	-3	23
158	0	12	13	17
157	7	13	19	14
157	7	17	-4	15
158	10	24	-25	9
157	18	25	-5	-7
157	7	19	-6	-32
158	5	17	-18	-79
158	9	19	-11	-88
157	7	18	-17	-51
157	6	18	-6	-31
158	-2	17	11	-7
157	4	17	16	16
157	12	19	-11	18
157	9	18	-19	24
157	3	23	-19	18
158	-2	24	-5	15
157	-1	21	21	2
158	-1	18	23	-3
158	0	14	23	-10
157	3	20	30	-9
157	3	19	20	9
158	4	9	-24	7
158	3	18	-16	5
157	5	20	35	15
157	8	18	94	34
157	5	16	104	41
158	5	17	29	42
158	5	15	43	38
158	4	18	64	21
158	5	17	0	-3
158	3	12	-73	-28
158	2	15	-87	-37
158	3	14	28	-43
157	2	21	67	-31
157	5	23	-5	-20
157	8	24	25	-15
157	10	23	4	-3
158	9	22	-7	-4
158	5	22	11	6
158	5	19	-37	9
157	5	21	-22	9
157	7	17	-43	13
158	5	14	-17	12
158	7	14	13	13
158	11	14	20	17
157	5	19	20	28
158	1	20	-11	26
158	3	17	12	10
157	-3	19	17	0
157	-4	17	21	-13
158	5	17	19	-15
157	9	22	-8	8
157	5	19	-4	17
157	7	21	-10	8
157	4	19	3	20
158	5	13	21	21
157	8	17	20	16
158	4	17	28	19
158	7	19	19	11
157	9	21	4	-7
158	9	21	-39	-18
157	10	18	-51	-20
158	7	16	7	-28
159	5	17	3	-38
158	2	19	-51	-41
157	0	18	-9	-13
158	0	18	24	2
157	0	16	10	3
157	0	16	37	10
158	4	17	75	4
157	4	18	92	10
158	8	22	31	14
157	15	23	-18	11
157	14	19	-31	14
158	5	17	-37	16
157	5	17	-33	20
157	5	18	8	15
158	5	15	78	15
158	5	16	52	21
157	6	21	0	13
158	4	19	-6	9
157	2	18	-15	11
157	1	15	28	2
158	4	14	81	-13
158	1	17	102	-41
158	3	17	23	-66
157	1	13	-8	-71
158	-1	12	5	-54
158	-1	12	-75	-13
157	1	14	-54	10
159	5	17	-52	12
158	4	21	-53	12
157	3	21	9	14
158	3	21	-12	19
157	5	23	-57	24
158	5	24	-62	29
157	6	22	6	28
158	5	21	123	18
158	3	27	209	19
157	10	26	25	18
158	12	12	-117	-6
157	5	11	26	-8
157	4	23	36	3
158	5	23	14	-5
157	5	22	6	-10
158	6	18	21	-4
157	7	19	30	6
157	4	18	-70	-9
158	1	15	-104	-13
158	4	18	-90	6
158	3	14	-50	4
158	-3	15	18	13
157	0	14	81	7
158	1	10	111	-15
158	5	18	72	-14
158	14	26	22	-5
158	10	26	47	3
158	11	25	72	13
157	7	17	67	12
157	3	16	-2	13
158	9	28	-62	6
158	8	23	-26	-7
157	4	19	-34	-14
157	3	19	-38	-19
158	3	17	-24	0
158	3	18	42	10
157	3	14	85	7
158	2	21	6	18
157	4	22	-20	25
158	3	17	-15	21
158	5	15	0	7
157	5	18	5	-4
158	5	23	-6	4
158	5	23	41	18
158	6	17	82	16
158	8	17	49	9
157	13	17	16	4
158	13	15	2	-1
158	12	15	-5	-21
158	12	13	9	-45
158	5	16	-3	-46
158	3	14	10	-27
158	1	14	22	-12
157	4	15	32	-3
157	5	17	24	9
158	5	21	-15	11
158	3	17	-3	11
158	3	16	-7	9
157	2	20	-16	9
157	3	18	-31	20
157	4	18	-56	16
157	0	16	-41	6
157	1	14	-21	15
157	1	16	-5	22
158	5	23	-19	17
157	5	25	-27	12
157	5	23	-4	9
158	3	19	50	7
157	3	17	47	-3
158	3	15	6	-15
157	4	14	38	-20
158	10	17	43	-24
157	9	15	4	-41
158	4	11	-35	-43
157	0	11	-83	-30
158	-2	12	-133	-12
158	-1	14	-125	10
157	-3	17	-28	15
158	-1	16	137	23
158	4	16	137	23
157	9	15	49	19
157	8	12	161	18
158	13	13	164	18
158	18	19	142	15
158	16	24	51	7
158	10	23	-24	4
157	9	19	-31	-9
158	7	22	-120	-15
157	5	23	-51	-4
158	9	22	-6	7
157	11	19	-7	11
157	11	22	-7	13
157	5	20	4	8
158	3	17	-3	4
158	4	23	-9	15
157	1	21	-27	17
158	3	17	-54	15
158	4	22	-27	16
157	2	17	-23	15
158	2	13	-7	9
157	5	17	33	-2
157	3	19	99	-17
157	0	22	68	-27
157	4	21	26	-25
157	10	22	39	-22
157	8	19	23	-13
157	8	24	17	7
157	5	22	-65	11
158	3	18	-132	10
158	1	17	-107	17
159	-7	15	-59	12
157	-17	18	15	19
158	-11	16	99	12
158	-1	13	202	-6
158	2	13	179	-15
158	12	22	73	-25
159	14	19	74	-28
158	22	13	28	-15
158	26	20	-18	6
158	21	22	-31	12
157	12	22	-34	15
158	10	18	-2	3
157	10	23	-31	-1
157	7	21	-59	3
158	4	18	-40	-5
158	1	24	-25	-7
157	5	24	-12	-8
158	0	25	4	-3
158	1	17	1	-4
157	1	14	-16	8
158	-2	15	-42	18
157	0	16	-7	12
158	3	18	16	4
157	3	16	-18	9
158	0	12	20	10
157	-1	6	65	14
157	0	11	-7	15
157	7	15	-20	-9
158	8	14	38	-24
158	9	14	5	-20
157	8	15	25	-10
158	7	18	26	-5
158	5	19	13	-2
158	-1	16	-5	-18
157	-1	19	-28	-17
158	5	19	12	-2
157	10	15	34	11
157	5	22	42	19
157	4	25	37	26
157	4	22	30	30
158	3	24	-11	21
158	6	18	-51	15
157	5	18	-70	-5
157	3	24	-35	-16
158	-1	19	-9	-8
157	0	17	-15	0
157	1	15	-12	1
157	1	16	-3	4
158	5	18	68	11
157	5	15	82	14
157	4	18	-1	15
157	10	25	-88	13
158	13	18	-136	5
158	5	18	-90	-5
157	0	19	15	2
157	1	13	106	17
157	5	14	239	29
157	5	14	253	36
157	3	20	99	29
158	0	16	2	19
157	1	15	-60	11
158	16	25	-44	2
158	20	26	-26	-18
158	18	25	-7	-45
157	10	25	16	-61
157	3	27	-31	-40
157	5	18	-41	-28
158	3	16	-24	-19
158	4	19	-19	9
158	5	23	-35	13
157	5	21	69	3
157	2	14	213	-20
157	2	17	121	-26
157	6	19	-70	-14
157	7	17	-28	0
158	8	15	-47	11
158	7	15	-64	4
158	5	16	-15	-7
157	4	17	-50	-15
157	3	16	6	-12
158	5	14	27	4
157	4	16	29	14
157	5	18	8	11
157	8	18	34	18
157	5	20	32	14
158	6	19	27	15
157	4	18	42	10
157	3	19	-34	17
157	5	17	-29	32
157	8	19	8	21
158	8	19	-3	23
158	5	17	-45	15
157	5	18	-38	0
158	7	25	-1	-18
157	8	22	-9	-35
158	6	18	-30	-43
158	4	13	-24	-40
158	1	10	-14	-15
157	-1	18	-8	-6
158	0	19	37	5
158	3	21	59	9
158	1	21	68	12
158	4	18	17	17
158	7	18	-6	16
157	7	17	21	17
158	5	19	6	14
158	4	16	16	18
157	7	22	-13	21
158	8	21	-12	15
157	3	22	9	14
157	4	21	46	15
157	7	24	23	11
158	7	22	-15	-2
158	3	15	22	-15
158	7	19	-18	-24
157	9	24	3	-18
158	5	21	31	-11
157	5	15	7	-9
158	3	20	26	-4
157	5	15	8	-2
158	3	17	0	6
157	7	20	-11	8
157	8	14	-7	9
158	5	10	2	7
158	3	9	8	3
158	4	16	35	8
157	8	16	50	12
158	7	17	32	12
157	1	21	15	7
158	-2	18	18	3
158	-7	14	45	2
158	-8	16	73	-8
157	-3	15	72	-17
158	11	18	48	-21
158	21	24	-32	-17
158	12	19	-151	2
157	3	17	-156	9
158	1	15	-110	10
157	0	16	-85	22
158	4	17	-3	34
157	6	22	112	38
157	11	22	167	31
157	14	21	36	11
158	7	21	56	-23
158	6	19	36	-58
157	5	22	-12	-69
158	4	19	52	-35
157	5	20	-44	-18
159	3	16	-26	-4
157	3	18	-59	4
158	3	21	-26	9
158	3	15	35	16
158	2	15	-5	16
158	3	16	53	16
158	2	19	24	13
157	4	17	-55	19
158	4	18	-60	13
158	4	22	-16	6
157	7	19	8	3
157	4	15	19	10
158	6	19	40	8
157	5	19	-13	10
158	7	18	-67	12
158	8	19	7	-3
157	5	17	46	-3
158	3	17	118	-12
157	1	13	168	-18
157	7	19	91	-14
158	8	20	90	-3
157	5	13	53	4
158	4	11	0	10
157	7	9	-30	11
158	7	17	-117	4
157	10	20	-45	9
157	8	18	41	13
157	8	22	-8	16
157	6	23	-17	9
157	3	19	-26	-1
158	6	21	-25	-12
157	5	21	-14	-16
157	5	22	-7	-7
157	4	17	15	2
158	4	17	12	11
158	4	18	3	13
157	3	15	-2	14
157	8	18	4	19
157	8	17	3	10
157	10	20	-12	-3
158	8	22	-14	-10
158	8	22	-4	-12
158	5	17	14	-15
157	0	12	32	-31
158	1	15	-4	-42
158	7	18	-7	-22
158	9	17	51	4
158	11	18	33	8
157	10	16	15	15
157	6	12	4	29
157	5	16	-20	33
158	4	17	-39	27
157	-1	14	-35	16
158	1	16	-1	-10
157	4	18	49	-30
157	3	17	63	-45
158	1	16	46	-34
158	0	16	59	-3
157	0	22	11	3
158	3	21	1	13
157	2	21	7	10
158	1	24	17	15
158	5	22	35	16
157	5	24	-16	9
158	4	24	-47	9
158	13	22	-63	2
158	19	17	-30	-1
158	8	17	0	-4
158	3	18	46	10
158	3	24	46	14
157	2	23	0	13
158	4	21	27	16
158	9	21	-10	17
157	8	19	29	12
158	3	23	66	13
158	0	22	6	22
158	-5	19	-30	25
158	-3	19	-48	29
158	-2	15	-33	19
157	-15	9	-34	3
157	-21	17	-42	-7
158	-12	15	-13	-23
158	-1	11	46	-36
158	9	15	77	-30
158	14	11	87	-11
157	21	14	52	-12
158	36	19	22	-18
157	36	23	22	-13
158	22	26	5	4
158	11	22	5	14
158	10	20	-15	7
158	6	22	-34	13
158	5	18	-27	13
158	2	15	-25	12
158	-3	18	-1	3
157	0	19	23	-12
158	0	21	-18	-6
158	1	18	-11	-3
157	2	17	60	-5
157	3	17	50	-4
157	6	19	3	9
158	5	19	-43	9
157	3	16	-99	0
158	3	19	-137	-11
158	3	15	-68	-30
157	1	15	18	-38
158	0	12	166	-5
157	3	12	262	22
157	0	13	48	22
157	-1	12	33	23
157	3	19	37	7
158	2	18	-79	-2
158	1	13	-11	-12
158	4	15	-26	-5
159	4	18	50	9
158	6	20	162	1
157	3	22	146	-8
158	5	27	71	-10
158	5	18	-64	1
158	5	15	-105	-6
157	8	21	-71	-15
158	9	17	-47	-23
158	9	17	4	-17
157	8	18	48	-8
157	8	22	16	-7
157	8	19	-17	3
158	6	15	-39	7
157	7	19	-55	15
157	6	23	-37	24
157	5	22	-1	20
157	3	18	60	13
157	0	13	52	6
158	-1	12	20	11
157	0	17	-24	19
158	0	17	-47	7
158	-5	16	-68	4
158	-1	22	-92	10
158	9	19	-69	10
158	5	19	-44	2
158	12	23	-25	3
157	25	23	15	12
157	15	19	45	12
158	5	19	38	7
157	6	21	63	7
158	7	21	94	14
157	7	22	105	13
158	5	18	103	6
158	6	15	49	-5
158	1	17	11	-7
157	5	21	-13	-3
158	6	17	-15	-8
158	3	15	-20	2
158	7	15	-5	2
158	3	19	29	0
158	5	21	8	4
158	3	18	-9	0
157	2	22	19	11
158	5	18	32	9
158	5	17	-20	4
157	7	16	-53	6
157	12	15	-91	-4
158	10	18	-51	-8
158	2	14	21	-1
157	-1	14	-13	5
158	-8	19	15	10
157	-1	17	38	17
157	4	20	32	14
157	-4	21	43	16
158	-17	17	31	24
157	-15	20	37	20
157	4	17	31	4
158	16	17	57	-23
158	23	16	6	-51
157	17	24	-50	-73
158	21	29	-5	-65
157	24	26	6	-48
158	16	19	26	-20
157	13	20	34	7
157	14	22	17	21
158	9	18	-16	41
157	7	16	-23	32
157	-1	18	-21	12
158	-1	19	-38	0
158	1	17	7	2
157	0	19	43	11
158	2	17	33	1
157	2	21	20	1
158	3	21	6	-6
158	3	22	34	-8
157	1	23	78	-12
158	1	22	26	-7
157	5	26	-1	0
158	4	14	35	-6
157	10	13	33	-22
158	8	16	36	-33
157	3	11	22	-15
157	3	11	16	5
157	5	17	-1	7
157	5	14	-29	7
158	3	15	-37	20
158	8	15	-52	27
158	7	9	-40	17
158	3	8	-23	9
158	3	17	-42	9
158	4	22	-102	16
158	2	22	-78	12
157	1	18	26	9
158	1	12	29	10
158	2	17	47	8
158	1	15	69	13
157	3	22	-1	13
157	1	24	8	10
157	4	16	-16	4
158	8	21	-36	3
158	3	17	-6	3
158	8	17	-13	4
159	17	21	59	5
158	15	21	132	-2
157	10	22	91	-4
157	14	25	42	-12
158	12	20	84	-5
157	7	21	75	5
157	7	22	48	3
158	6	19	-21	-2
157	5	19	-72	-5
158	2	20	-68	3
157	5	17	-96	2
158	4	19	-85	7
157	0	20	-1	17
157	1	15	144	25
158	3	17	52	12
158	2	15	-2	-6
159	-1	13	85	-2
157	2	16	-62	-5
157	-2	14	-73	-7
158	0	14	9	-1
157	1	18	68	7
157	3	15	67	12
157	3	20	29	10
157	4	20	40	-13
157	6	15	18	-35
158	3	17	19	-47
157	9	25	-8	-44
158	9	23	5	-13
158	8	18	-7	-5
158	7	21	-26	3
157	6	19	-23	7
157	5	17	-62	2
158	4	11	-70	-1
157	5	13	-47	4
157	4	18	-58	11
157	7	14	-43	6
158	6	12	42	8
158	1	9	36	1
157	-4	8	13	-7
159	-5	10	58	0
157	-4	17	36	13
158	1	23	23	16
157	8	19	27	14
159	11	21	6	19
158	9	25	14	22
158	7	28	29	17
158	7	19	50	13
158	7	22	-26	6
157	9	24	-25	4
158	8	17	-3	7
158	7	17	-55	6
157	6	17	-6	7
158	6	16	8	10
158	5	21	11	8
158	11	22	-4	11
157	8	17	-24	4
158	5	15	-22	0
158	5	15	-39	-6
158	-2	18	-47	-18
157	-16	12	-2	-21
157	-31	8	83	-23
158	-20	11	174	-17
158	-4	17	188	-11
157	7	16	142	0
158	14	18	100	16
157	19	23	-7	20
157	37	25	29	22
157	41	25	22	11
157	34	27	-41	-4
157	31	31	-24	-5
157	16	25	-43	-4
158	10	19	-11	-8
158	10	19	-22	-17
158	1	18	-12	-14
157	-2	18	1	-13
157	-2	16	8	-1
157	0	19	-43	13
157	-3	18	-121	17
157	0	17	-99	21
157	0	15	-36	13
158	-1	18	23	11
157	3	21	8	7
158	6	19	53	-10
157	7	19	107	-13
158	2	15	56	-4
158	3	14	-12	7
157	5	16	-46	-4
158	3	14	-1	-13
157	4	14	41	-14
158	2	14	52	-17
157	3	16	-20	-11
158	5	19	-59	-14
157	8	22	-25	-4
157	5	21	-24	6
158	4	24	2	21
158	5	25	27	33
158	0	18	100	30
158	3	18	162	34
157	-1	17	118	23
158	0	22	64	-13
158	1	21	53	-42
158	1	15	37	-35
158	1	15	-16	-22
157	1	17	-77	-18
158	5	19	-101	-4
158	5	17	-3	-6
158	4	18	-13	-1
157	3	22	-118	15
157	7	19	-62	29
158	7	11	-43	19
158	10	17	-34	7
157	14	21	-54	20
158	12	18	-64	12
158	7	14	-34	15
158	8	15	-51	25
157	5	21	-52	27
157	3	15	-55	35
157	3	21	4	33
158	4	25	157	16
157	10	17	179	-4
157	6	15	26	-33
158	0	19	36	-49
158	1	16	18	-26
158	-3	15	42	-14
157	0	14	104	-13
157	1	17	61	1
158	5	24	37	6
158	5	23	-25	5
158	5	21	10	-6
158	5	22	21	-17
158	6	22	-15	-27
158	6	19	-13	-27
157	3	15	15	-5
158	5	19	23	3
157	3	22	-18	8
158	1	15	-31	12
157	0	17	-16	4
158	0	22	64	5
158	5	19	78	11
157	4	19	24	14
157	0	14	17	11
158	5	18	4	12
158	17	22	-36	12
158	12	21	-44	11
158	9	19	-18	12
157	11	16	-6	11
157	3	14	19	8
158	2	16	33	6
157	4	18	-37	2
157	6	20	-58	4
157	8	20	6	-5
158	5	18	43	-11
157	4	16	90	7
158	2	16	99	18
157	4	16	69	14
157	7	15	2	14
157	6	17	-24	18
158	6	17	15	11
158	5	14	-17	10
158	5	18	-49	-1
158	5	19	-31	-14
158	3	18	-3	-16
157	8	19	2	-14
158	9	21	-11	-17
157	3	15	-1	-23
157	3	17	42	-11
158	4	19	38	-6
157	12	20	-10	-3
157	16	18	-9	-5
158	11	19	-20	-16
157	3	21	-52	-14
158	-1	18	-85	-12
158	0	17	-57	-5
158	6	18	-1	-4
158	7	18	29	-10
157	4	17	48	-7
158	4	17	42	-4
157	0	16	33	7
158	0	15	39	22
158	3	16	63	19
157	2	22	47	10
157	5	24	69	2
158	4	19	101	3
158	5	22	64	12
157	7	20	-12	18
158	8	17	-59	14
158	12	18	-87	2
158	9	19	-97	4
157	6	20	-87	-8
157	6	16	-115	-14
157	4	11	-80	15
158	7	15	-37	-1
157	11	21	19	-12
157	10	22	57	6
158	3	22	60	3
157	-1	21	42	10
157	-3	18	5	9
157	1	22	21	3
158	4	19	-11	5
158	-1	17	-15	7
157	-16	21	-16	3
159	-15	19	22	3
157	-4	19	61	12
158	3	19	43	14
158	10	14	88	19
158	12	11	107	24
157	23	14	42	28
158	30	22	-25	23
157	22	18	18	-4
157	10	15	92	-21
158	7	14	81	-37
157	6	22	-28	-39
158	7	25	-54	-2
157	5	19	-8	11
158	5	25	-1	6
158	14	24	32	7
157	11	19	32	-5
157	4	18	16	-11
157	4	17	32	12
157	2	19	82	28
159	0	17	66	21
157	0	15	22	8
157	0	18	1	-11
158	3	19	3	-21
158	5	17	4	-20
158	4	15	-17	-22
158	0	13	-5	-28
157	-1	12	-51	-32
157	5	14	-80	-29
157	0	15	-22	-9
158	-1	15	3	6
158	-4	18	-4	10
157	-5	16	-3	8
158	-1	21	-7	18
158	2	17	-3	23
158	7	14	0	27
158	7	18	1	19
158	10	18	-16	15
157	11	19	-15	20
157	8	19	5	4
157	8	24	-19	-3
158	5	19	11	-6
157	5	14	38	-2
158	7	16	25	-5
157	7	17	-4	1
158	7	19	-56	4
158	7	22	-42	-8
158	12	23	-30	-6
157	10	20	18	-2
158	7	23	38	0
157	9	22	-35	0
157	5	17	-37	0
157	5	17	-31	-10
158	5	18	-43	-18
158	3	24	-24	-3
157	4	23	6	4
157	8	23	32	11
158	7	22	59	10
157	4	12	59	-4
157	0	13	79	-10
158	-2	13	122	6
157	0	19	95	16
157	-5	13	109	17
157	-4	15	69	11
159	-4	21	23	7
157	8	19	6	5
158	9	19	-45	0
158	9	20	-62	10
158	7	15	-88	12
157	7	14	-30	12
157	15	22	-5	13
158	13	21	8	11
157	7	22	33	9
158	1	23	2	4
158	1	22	18	2
158	2	24	4	-6
157	5	24	-10	-6
157	5	24	-19	-6
157	4	19	-27	-15
158	4	14	-18	-15
157	1	15	-1	-6
158	5	21	43	3
157	7	19	50	7
158	8	21	35	4
157	5	19	19	3
157	3	17	13	3
157	2	18	-3	0
157	2	22	19	3
158	3	17	31	-5
158	10	17	-57	-12
158	9	19	-79	-11
158	9	19	-10	-7
158	17	21	-17	2
157	13	18	-51	11
157	8	14	-14	4
158	11	15	35	-16
157	10	14	75	-18
157	5	15	108	-15
158	7	15	90	-1
157	3	11	27	6
157	-1	10	24	2
158	3	17	35	15
158	6	19	3	18
157	7	21	0	19
158	4	19	-40	19
157	3	23	-87	13
158	4	23	-101	6
158	3	18	-96	2
158	1	16	39	1
158	0	17	186	10
158	1	13	188	1
158	-1	10	86	-8
157	-1	15	49	6
158	7	19	33	11
157	2	17	-9	8
158	7	22	-1	-8
157	10	21	-35	-21
157	7	18	3	-29
157	5	17	40	-46
158	4	17	-42	-48
157	3	23	-80	-21
158	7	19	-81	6
157	8	19	-68	6
157	7	22	-4	14
157	8	17	-11	23
157	7	17	-36	35
157	7	22	6	37
158	8	20	2	35
158	7	17	22	38
157	4	13	6	20
158	0	15	-8	-9
157	-1	17	30	-22
158	0	19	37	-24
157	1	21	86	-26
158	3	20	101	-32
158	3	22	88	-37
158	0	19	54	-16
158	6	21	-3	-10
158	10	20	-80	-13
157	7	19	-106	1
158	5	22	-49	-1
158	10	19	-77	7
158	9	14	-18	16
158	2	15	39	17
157	1	15	0	21
157	5	16	8	25
158	3	19	5	22
157	1	16	17	21
157	2	19	17	25
157	7	16	21	29
158	3	19	-7	24
158	3	17	-30	16
157	3	15	-10	9
157	4	17	24	9
158	7	17	18	7
158	6	17	-25	7
158	8	12	-18	1
158	4	16	0	-11
158	2	13	58	-9
158	-15	10	71	-12
158	-29	9	2	-9
157	-12	10	30	0
158	3	15	56	-2
157	5	15	4	2
158	16	22	25	-2
158	28	26	-7	-7
157	41	26	-30	-3
158	43	27	-35	-7
158	28	30	13	0
158	15	27	102	10
157	9	26	56	14
158	4	20	70	10
158	2	18	43	-5
158	4	20	-29	-34
158	0	18	-51	-39
158	0	21	-2	-50
158	-2	21	32	-52
158	-3	13	-22	-20
159	-1	15	-22	2
157	0	19	-21	17
157	1	17	-22	21
158	3	19	33	35
158	9	21	83	47
157	2	19	7	36
158	-3	17	-58	30
159	-3	13	20	18
157	-4	15	68	9
158	1	15	-52	-11
157	5	18	-78	-26
158	8	25	-5	-24
157	7	27	-25	-24
157	4	17	77	-22
158	3	15	90	-18
158	4	17	62	-15
157	4	14	97	-9
157	5	15	58	2
157	-3	14	43	4
157	-3	11	-1	6
157	0	17	-52	8
158	0	16	-71	13
158	2	14	-48	13
158	4	15	-24	9
158	6	16	-23	9
158	5	21	-32	4
158	5	19	-40	4
158	7	17	-34	9
158	10	19	-36	15
158	8	18	22	14
157	4	13	10	14
158	4	18	4	16
157	3	16	59	14
158	1	17	39	10
157	0	17	-12	4
158	3	14	-63	-1
157	6	17	-24	1
158	13	21	18	4
157	16	24	43	2
158	12	23	33	6
157	10	22	-20	8
158	10	17	-7	-3
158	7	18	15	-5
158	8	22	15	-2
158	7	18	-10	0
158	7	18	1	2
157	7	17	84	-2
158	3	14	168	-6
157	3	15	118	-1
158	5	14	51	-9
157	3	16	41	-12
157	3	17	-32	2
159	5	16	-32	5
158	5	22	-6	3
157	4	24	-25	1
159	2	22	-64	-1
158	-3	20	-14	-4
157	-1	18	8	-6
157	2	21	-16	-1
157	3	24	7	5
158	11	22	-16	4
158	15	21	-17	2
157	7	21	-38	-2
158	5	21	-23	-4
157	5	21	30	-1
158	3	20	-10	6
158	9	19	1	2
158	6	16	83	0
157	7	18	101	8
157	4	16	41	8
158	4	16	-29	20
157	7	19	-21	11
158	1	19	1	-5
158	2	22	1	-4
157	5	19	19	4
157	8	17	5	9
158	4	17	-43	5
157	6	19	-31	3
158	6	22	-2	2
158	4	22	-8	-4
158	7	17	-34	-15
158	5	16	-59	-16
158	6	19	-14	-9
157	7	15	53	-15
157	1	15	34	-10
157	5	16	25	4
157	4	9	79	4
157	5	14	35	-3
157	9	21	-39	-5
158	8	17	-82	-5
158	5	18	-67	0
157	4	16	81	8
157	4	16	212	16
157	1	26	63	17
158	-1	19	-98	13
157	0	16	-3	19
158	2	25	-10	16
158	7	19	-17	0
158	10	17	14	-25
157	5	15	3	-43
158	1	17	45	-49
157	1	15	90	-43
158	0	14	96	-17
157	3	18	11	4
157	3	17	27	10
158	8	19	18	22
158	6	21	-15	32
158	3	22	-5	31
158	4	19	-40	25
157	7	21	-24	13
159	5	20	-11	6
157	0	18	9	0
158	5	23	-33	0
158	5	21	-56	1
157	5	19	-10	10
158	4	17	26	16
157	11	13	36	19
157	6	15	-15	17
158	7	19	-53	2
158	10	21	-81	-4
157	8	23	-54	-5
158	8	22	68	-8
158	7	19	87	-4
158	5	16	16	8
158	-1	14	35	9
158	1	13	24	7
157	-3	14	-8	4
158	0	19	3	7
157	3	22	20	19
157	4	26	40	26
158	7	23	23	14
158	12	21	2	11
157	18	24	-7	11
157	5	15	-24	4
158	4	19	-50	-8
158	5	16	-16	-17
158	5	17	16	-18
157	7	18	35	-23
157	5	15	51	-31
157	3	20	4	-26
158	-1	15	1	2
158	0	14	-15	6
158	0	13	-29	-4
157	3	18	12	-4
158	4	21	41	2
158	4	19	21	9
158	4	18	-28	3
157	10	18	-13	6
157	11	17	-1	4
157	4	17	13	7
157	1	19	46	9
158	0	21	50	4
158	0	17	31	2
158	4	15	52	6
158	4	19	59	3
157	3	17	13	-1
157	4	14	1	-1
157	-1	13	55	-4
158	0	11	23	1
158	2	22	-54	-2
158	7	18	-33	-11
158	10	18	-39	-1
157	10	23	-27	7
158	9	20	-18	1
157	5	15	-11	13
158	3	7	23	17
158	6	14	103	14
158	9	17	150	13
158	7	14	93	7
157	8	18	77	0
157	5	16	-7	-9
158	4	18	-58	-13
157	7	18	-70	-15
158	8	19	-81	-9
158	13	22	-33	-6
158	9	21	-20	-4
158	8	22	-23	1
158	3	20	-61	8
158	1	19	-58	18
158	3	22	0	23
158	5	22	32	29
157	7	21	30	21
157	3	14	54	7
157	5	14	6	-8
158	3	24	-46	-27
158	3	22	-31	-15
157	8	16	-84	-6
158	10	12	-4	-6
158	11	9	94	-6
158	9	21	4	-7
158	4	25	-16	0
158	-2	18	0	3
157	-1	15	-1	4
158	6	19	63	-8
158	9	19	48	-28
157	3	19	90	-30
158	4	18	116	-32
157	7	20	66	-18
158	4	19	2	-2
158	5	19	-36	7
158	5	18	0	8
157	5	16	-36	-3
158	5	18	-43	4
158	5	19	-28	11
158	3	18	28	14
158	3	13	73	12
158	4	15	30	14
158	6	19	-6	13
158	9	18	-40	9
159	7	20	-51	8
158	5	17	-68	10
157	7	19	-64	16
158	7	17	6	19
157	5	15	106	28
157	4	15	43	26
158	7	22	0	20
157	7	19	58	17
157	1	19	38	6
158	2	22	67	-14
159	4	22	16	-16
158	6	29	-47	-18
158	13	27	-19	-19
158	15	20	0	-9
157	10	19	-37	1
158	7	23	-98	2
158	10	21	-83	4
157	7	13	-30	11
158	6	10	23	17
157	5	11	59	22
157	-1	12	97	11
158	-1	14	93	10
158	2	19	65	-5
158	1	22	92	-24
157	0	17	93	-24
158	3	21	45	-22
158	4	18	26	-13
158	4	18	13	-9
158	3	21	-15	0
158	3	19	-41	15
157	0	23	-65	23
158	6	26	-43	24
158	10	26	10	21
157	11	23	25	20
158	10	18	17	7
157	2	15	27	-12
158	5	18	6	-25
158	5	17	-55	-19
157	9	23	-108	-21
158	11	23	-167	-11
158	5	24	-71	3
158	5	18	35	3
157	1	12	59	14
157	3	15	201	11
158	-1	14	80	6
157	2	15	-65	12
158	3	13	82	7
158	0	13	22	-13
158	2	22	-27	-25
158	2	19	-5	-25
158	0	14	-9	-17
158	0	15	41	-10
158	1	13	6	-12
158	2	15	23	-14
158	8	18	6	-10
158	5	18	15	-1
157	5	19	17	2
157	4	19	-16	10
158	5	22	-20	19
158	3	21	-34	19
158	5	16	-3	14
158	12	17	2	16
157	14	14	10	17
157	8	12	43	15
158	1	14	49	20
157	3	16	-23	27
158	10	18	-39	34
157	14	22	-2	40
157	8	19	19	31
157	0	17	55	11
158	-1	15	43	-19
158	2	19	43	-52
158	6	25	27	-62
158	5	19	27	-47
158	2	17	-7	-13
158	5	24	-87	9
158	4	17	-49	6
157	4	14	-20	7
158	8	17	-7	4
157	6	14	35	1
158	3	15	42	6
158	1	17	35	13
158	3	19	11	14
158	0	19	-2	11
157	2	19	4	16
157	5	16	45	13
158	3	20	31	11
158	9	22	-13	9
158	19	17	4	11
157	12	17	1	18
157	8	15	0	15
158	11	15	21	9
157	6	16	51	4
158	4	17	19	-2
158	7	20	-8	-15
158	2	18	-4	-20
157	4	15	-33	-29
158	4	17	-30	-28
157	4	14	-34	-19
157	4	12	-27	-19
158	3	17	20	-16
157	3	19	49	-3
157	1	17	20	0
157	2	20	38	9
158	1	16	68	10
157	2	17	-1	6
157	3	21	-2	4
158	3	21	-21	4
158	0	17	-26	9
158	4	21	6	7
157	7	23	-11	9
159	9	24	37	12
158	8	21	22	13
158	5	19	-62	8
158	8	21	-55	5
157	4	17	-8	7
158	3	18	-8	7
157	5	16	22	6
157	7	16	45	6
158	8	18	51	0
158	10	22	49	-8
157	9	24	17	1
157	7	24	12	4
158	6	21	16	13
158	8	16	40	25
158	8	20	54	23
158	7	22	9	19
158	7	16	-15	23
157	3	13	-16	19
157	1	14	1	8
158	3	11	37	3
157	4	20	-6	-6
158	4	24	-12	-18
157	5	21	33	-39
158	3	21	20	-47
157	2	19	-10	-37
157	4	15	-3	-38
157	1	14	-4	-28
158	5	19	-18	-29
158	5	19	-20	-24
157	5	19	-42	-1
157	8	18	-32	7
158	5	24	-4	10
157	9	19	61	8
157	8	18	77	-1
158	7	22	14	2
158	6	16	23	11
157	4	17	4	15
158	2	17	-18	14
158	2	17	-6	19
158	1	15	-8	15
158	7	18	-6	2
157	8	17	-13	4
159	7	18	-37	7
158	5	16	-55	7
157	3	14	-42	15
157	4	15	-12	21
157	2	15	52	32
157	1	18	13	39
158	0	21	30	42
157	1	19	172	19
159	-3	19	108	2
157	4	18	32	-7
157	13	19	24	-14
157	13	19	-22	-6
157	8	13	14	-9
157	3	16	-2	-8
157	2	18	-2	-4
158	-1	16	-9	-10
157	2	17	-18	-16
158	0	15	24	-10
158	3	20	-38	-1
158	8	22	-63	-8
158	3	18	-23	1
158	9	22	-54	-3
157	18	25	-21	-7
158	17	21	60	3
158	10	20	110	2
158	11	21	159	8
157	8	17	103	9
158	7	15	30	0
157	5	16	2	-9
158	2	18	-64	0
158	3	16	-107	7
158	1	17	-84	6
157	1	18	-17	11
157	1	18	2	14
157	1	19	6	21
158	5	17	25	16
157	4	18	34	13
157	1	12	30	10
158	3	11	-17	2
158	4	12	5	0
157	5	18	13	-20
158	4	23	22	-37
158	7	21	30	-38
158	10	22	-12	-32
158	4	22	-22	-29
158	5	18	-43	-25
157	5	19	-37	-7
158	5	24	-42	7
157	11	24	-11	14
157	11	19	-5	20
158	7	18	-41	15
157	9	24	-14	16
157	7	21	-19	10
158	5	22	-3	-6
157	2	17	22	-15
157	2	16	95	-10
157	4	21	106	16
157	6	21	10	27
158	8	23	40	18
158	7	16	57	17
157	5	12	59	23
158	1	13	49	21
158	0	14	24	11
157	1	17	25	2
158	5	24	-30	-8
158	5	21	-24	-20
158	5	17	2	-29
158	3	20	28	-30
158	1	15	45	-16
157	3	12	17	15
157	3	14	-18	10
158	5	18	-66	-2
158	3	16	-28	-4
158	4	18	-14	-1
158	5	24	-58	12
157	7	23	-7	10
158	9	19	35	4
157	11	21	5	-8
158	8	19	23	-10
158	7	17	22	-12
157	4	17	28	-11
158	1	15	42	1
157	3	15	48	4
157	2	16	86	2
158	3	16	-20	4
158	3	17	-84	11
158	7	23	-54	14
157	7	19	-39	15
157	3	19	-37	14
157	6	21	-51	12
157	5	17	25	17
157	7	18	63	18
157	5	17	49	13
158	2	15	56	4
157	0	17	80	4
157	-1	19	87	17
158	0	21	48	16
157	2	21	8	17
158	6	25	-27	13
158	6	27	-23	-1
158	8	24	-25	-8
158	7	23	-39	-16
158	1	19	-19	-18
158	3	17	19	-12
158	14	17	52	-1
157	12	13	48	-4
158	1	12	16	-27
157	5	16	-29	-41
157	3	23	-41	-25
158	2	17	-48	-5
157	3	14	-36	-3
158	3	14	-2	0
158	5	10	-9	-1
157	1	10	50	13
157	1	17	65	19
158	3	21	18	18
157	1	15	37	26
158	5	12	14	20
157	4	14	23	0
158	5	17	34	-16
158	7	15	-22	-20
157	5	17	-41	-16
157	5	17	-55	-13
157	5	17	-17	-8
158	7	15	48	5
157	8	14	23	17
157	7	15	-7	26
158	7	17	-4	23
157	5	23	-28	9
157	6	19	11	-9
158	7	17	41	-24
158	10	20	14	-23
158	12	19	12	-5
158	6	19	23	5
157	2	21	48	8
157	2	21	50	15
158	-1	20	35	18
157	0	19	10	22
157	5	21	-32	10
157	5	26	-27	4
157	4	24	8	-3
157	1	22	-5	-3
158	3	24	-18	8
157	7	20	0	6
158	8	15	-29	4
158	8	14	-41	0
158	4	17	-52	4
157	3	18	-48	6
157	4	18	20	6
157	5	19	23	3
157	7	19	53	2
158	5	17	122	3
158	9	20	49	4
158	11	19	42	14
157	7	18	72	17
157	8	19	-17	22
158	10	22	-23	17
157	5	16	26	11
158	7	17	10	-2
157	7	17	28	-9
158	4	16	24	-14
157	5	14	-9	-26
157	8	15	13	-25
158	5	20	10	-31
157	4	15	19	-29
157	3	15	3	-13
158	4	15	-1	-10
158	5	15	-3	-10
157	5	17	-112	-7
157	3	19	-184	11
158	5	20	-90	20
158	4	21	-5	7
158	5	24	10	8
158	3	19	20	14
158	3	19	8	11
158	1	17	70	2
158	0	13	135	8
158	5	14	157	19
157	7	19	68	15
157	3	18	24	21
157	3	19	68	32
158	5	22	27	30
157	6	21	-9	22
158	5	25	-29	8
158	8	21	-14	-6
158	6	21	-18	-31
158	9	23	-36	-49
158	8	21	-20	-68
158	5	21	34	-86
158	4	18	36	-38
157	3	16	-11	-6
158	1	15	1	-6
157	0	17	-17	2
158	-1	14	-8	2
157	-4	18	-8	14
157	0	20	-2	16
157	4	19	24	15
157	2	19	13	11
158	7	20	-4	7
158	16	21	-10	12
158	14	17	20	15
157	5	13	-6	21
157	8	14	-45	14
158	5	16	-18	0
157	7	14	-9	4
157	8	15	-48	16
157	6	20	-52	17
157	9	23	-19	0
158	7	22	-20	-2
158	5	21	-5	12
158	4	18	30	7
157	2	20	49	5
158	1	15	102	15
158	1	9	127	7
157	1	17	47	8
157	3	17	-19	10
157	2	18	-31	8
158	3	18	-34	1
157	7	15	-16	-1
157	9	16	-7	7
159	7	19	13	7
158	4	21	37	0
157	3	16	58	-2
157	0	10	141	-2
157	3	18	150	-1
158	11	26	32	0
157	10	22	13	0
158	4	16	-8	0
157	5	17	-28	1
158	5	22	28	-2
158	8	22	15	-11
158	7	18	-18	-4
157	8	19	-22	2
157	6	19	-6	0
157	5	19	-54	8
157	8	20	-68	9
158	5	16	-26	2
157	4	13	-39	0
157	3	14	-45	3
157	4	15	5	-1
157	1	11	39	-4
158	-2	8	55	2
157	3	13	42	12
158	5	15	27	21
157	8	21	19	21
157	10	19	-23	14
158	4	17	-36	4
157	0	16	-48	-4
158	-2	15	-48	-10
157	0	19	-33	-8
157	4	20	-57	-9
157	3	19	-2	-23
158	5	21	-6	-28
158	12	25	-28	-20
158	11	22	51	-7
158	10	22	82	-2
158	8	22	121	-6
158	8	15	108	-15
158	10	15	25	-12
157	11	19	-6	-13
158	10	23	-13	-17
158	5	21	-18	-8
158	4	15	-24	4
157	0	16	-60	29
157	7	18	-43	32
157	6	15	5	21
158	3	18	-8	1
158	3	23	63	-17
157	3	19	116	-22
157	3	21	62	-9
157	2	18	59	13
157	1	18	9	1
157	5	19	-48	-17
157	3	12	-40	-25
158	2	15	-25	-16
157	3	18	-13	4
157	1	17	-1	6
157	3	18	32	13
157	5	18	25	21
158	7	19	-16	19
158	4	21	-41	20
158	2	23	-25	19
157	1	18	66	16
158	-3	14	96	10
158	0	21	17	10
157	4	26	13	15
158	3	21	48	13
158	0	15	47	6
157	5	15	0	7
157	15	22	-40	9
157	16	21	6	6
157	8	18	-19	11
158	8	19	4	13
157	10	15	28	12
158	6	18	-28	8
158	5	18	-12	-11
157	-1	13	-37	-24
157	-1	18	-54	-2
158	4	22	-35	4
157	6	18	11	0
157	6	18	53	9
157	4	16	21	1
157	4	15	-1	2
157	4	17	0	0
158	3	15	10	13
158	7	15	27	14
158	9	14	26	11
157	9	19	-7	4
157	10	22	-26	1
158	9	16	12	0
158	7	18	29	-11
157	8	24	38	-17
157	7	21	40	-24
157	9	24	29	-17
159	5	25	47	-15
157	3	21	32	-15
158	4	19	20	-2
158	2	21	15	6
157	3	18	5	11
157	2	17	-1	14
158	0	17	-7	18
158	0	12	-2	12
158	3	17	-6	13
158	8	15	-9	9
158	11	12	-10	7
157	9	14	-24	1
158	1	17	-60	-6
158	-1	18	-33	-6
158	-1	18	26	-3
157	1	17	6	3
157	8	21	-6	-6
157	14	25	-8	-7
157	10	27	-35	15
158	9	26	-30	25
157	5	19	27	18
158	0	17	36	27
157	3	22	51	29
158	3	19	128	24
158	2	7	35	22
157	2	13	-51	4
158	5	19	-16	-19
157	9	17	-8	-40
157	3	17	7	-51
158	3	15	34	-63
158	3	18	56	-44
157	0	17	33	-36
157	3	18	-44	-43
158	4	19	-44	-45
157	2	16	44	-35
157	6	19	137	-6
158	5	19	133	5
157	12	14	54	22
157	11	21	55	34
157	7	19	42	36
158	6	11	17	31
158	4	14	-50	31
157	5	20	-144	31
158	8	21	-167	23
157	7	17	-159	15
157	8	22	-127	7
158	6	25	-45	2
157	5	22	42	0
157	7	15	82	6
157	5	14	42	6
158	5	19	-2	6
159	2	17	40	13
158	2	21	69	13
158	1	19	84	8
157	-2	16	60	0
157	1	17	-3	0
158	1	15	-19	-5
158	3	12	-13	0
158	9	17	6	10
157	19	19	19	9
158	15	18	25	12
157	5	22	9	10
157	8	18	25	9
157	5	17	29	6
158	6	18	4	2
158	6	21	-6	1
157	3	18	-31	-6
157	2	18	-9	-11
157	4	18	-11	-16
157	2	19	-41	-14
158	1	18	-39	-7
158	3	18	-32	-2
158	2	18	25	0
157	0	15	91	-2
158	-3	13	96	0
157	1	17	62	1
158	5	23	8	-3
158	5	25	28	-2
158	4	22	33	6
157	3	18	9	16
157	1	15	47	9
158	2	25	70	8
158	4	19	66	9
157	3	16	40	4
157	6	22	-4	-1
158	12	22	-65	2
158	14	21	-64	0
157	10	20	-44	-13
158	7	24	-68	-13
157	8	24	-52	-4
158	7	14	-36	0
158	7	20	-2	-3
158	10	22	45	-5
158	4	13	14	1
157	1	11	-43	-5
157	1	14	-17	-8
157	4	17	12	1
158	5	19	-6	14
157	7	21	1	14
158	5	18	6	10
158	4	19	13	9
157	5	17	53	3
158	1	16	82	7
157	5	17	63	7
157	7	19	24	7
157	7	18	41	10
158	8	15	19	5
158	9	15	-23	3
157	9	16	1	3
157	1	18	-12	-2
158	1	19	-15	-1
158	0	23	-5	2
157	-1	18	-4	3
158	6	19	4	4
158	6	18	28	-10
157	3	10	47	-9
157	0	11	5	-10
157	1	16	-5	-26
158	2	15	-2	-25
157	5	16	1	-27
157	3	19	-2	-29
158	3	18	-71	-30
158	7	16	-62	-10
157	10	18	-51	8
157	8	14	-50	12
158	7	15	-1	19
158	4	16	71	15
157	0	16	95	16
158	4	24	70	15
158	4	19	47	9
157	4	17	26	5
157	5	20	16	9
157	3	13	-31	17
157	3	17	-42	17
158	3	19	-54	19
157	3	14	-36	17
157	4	19	-25	14
158	4	15	48	11
157	8	15	108	12
158	3	18	21	1
157	4	21	13	-8
158	10	21	44	2
158	19	21	103	13
157	17	25	71	14
157	15	25	9	4
158	16	23	10	1
157	9	17	-34	-1
158	12	17	-39	-4
158	8	21	-15	-11
157	6	17	-2	-13
158	7	18	-10	-24
157	5	21	-16	-20
157	8	25	-69	-8
157	7	24	-49	-15
158	3	22	23	-10
157	5	18	56	-8
158	1	11	68	5
157	3	13	63	10
157	5	14	40	2
158	1	11	-5	7
158	3	12	28	2
157	3	13	47	-1
157	5	18	19	6
157	4	16	-29	4
157	3	15	-54	10
158	3	22	-117	14
158	2	18	-110	10
158	0	17	-36	15
157	-1	20	-12	18
157	2	21	75	19
157	0	19	75	24
157	2	19	49	17
157	6	21	53	5
158	6	21	16	-8
157	5	22	-35	-30
158	4	21	-19	-25
157	5	19	-8	1
159	4	21	-10	6
158	6	19	70	11
159	2	19	81	9
157	7	27	29	-8
158	7	29	40	-20
158	2	19	39	-33
158	2	17	25	-36
157	7	22	-16	-16
158	7	19	-82	1
158	-1	15	-43	-6
157	3	16	-13	2
157	5	17	-24	7
158	7	17	4	0
157	11	17	11	-2
158	8	14	45	-13
158	5	14	25	-2
158	1	17	-35	13
157	-5	17	-29	25
157	3	20	-4	34
157	6	13	36	39
158	7	12	53	31
157	5	17	48	14
158	5	18	33	3
157	9	19	10	-14
158	4	18	16	-23
157	3	17	-1	-14
158	5	17	-43	-9
158	3	14	-33	-11
158	1	17	27	15
157	0	19	31	19
158	-3	17	-8	18
158	0	21	10	19
157	3	18	37	6
158	2	14	38	5
157	5	19	14	-1
158	12	20	52	0
157	10	19	25	-1
158	2	19	-3	-2
158	4	22	23	3
157	6	20	-1	8
158	7	18	6	8
157	9	15	-37	2
157	7	13	-31	-3
158	5	16	-5	-7
158	7	17	41	-12
158	8	17	63	-14
157	6	19	29	-6
157	8	20	60	-3
158	9	24	29	-7
157	5	25	-32	-5
158	6	16	-48	-3
157	9	11	-77	-2
158	4	14	-140	-8
158	1	19	-91	0
158	4	16	38	7
157	2	11	107	11
158	2	12	43	15
157	1	23	2	22
157	3	18	60	17
159	6	16	-8	0
157	5	18	12	-4
158	9	17	37	2
158	10	24	-22	5
158	9	18	-2	1
157	6	21	-12	-5
157	4	22	-15	-4
157	3	19	-19	-1
158	5	22	19	-5
158	5	23	52	-6
157	4	19	48	0
157	2	16	27	0
157	1	15	-20	-8
157	6	15	-8	-10
159	3	17	48	-4
157	7	18	38	-2
157	8	22	-26	0
158	8	22	-4	6
157	3	19	17	10
157	2	19	8	4
157	2	16	23	-1
157	1	11	6	1
157	3	15	-11	3
157	3	19	-25	2
158	3	23	-30	1
157	4	25	-21	2
158	9	24	-20	6
158	8	19	-33	7
157	3	18	8	7
158	4	17	54	9
158	3	16	17	8
158	5	24	-21	2
158	8	22	39	-13
157	3	19	107	-30
157	4	15	66	-34
158	8	16	7	-22
158	8	21	11	-5
158	8	18	26	12
158	9	19	21	25
158	11	18	2	37
159	12	18	15	51
157	7	15	25	52
157	7	13	31	40
158	7	9	24	19
158	3	13	-22	-4
158	4	18	-47	-24
158	7	20	-94	-36
159	7	20	-55	-47
157	4	18	4	-45
158	7	22	-48	-13
158	8	22	-53	-1
157	3	15	-41	-5
157	2	14	6	-12
157	5	19	121	-21
158	3	15	154	-42
157	2	14	97	-34
157	3	18	55	2
158	-3	18	40	4
158	-1	19	10	11
158	5	23	5	11
158	7	19	22	7
158	2	16	34	10
158	3	22	32	19
157	3	21	7	25
158	1	16	-20	21
158	1	17	-42	13
157	0	19	-61	4
157	5	21	-100	13
157	8	18	-97	14
157	7	17	-41	8
157	8	17	15	11
157	16	21	38	16
158	11	22	24	20
158	3	23	47	18
158	7	19	24	14
157	5	22	-22	7
157	4	17	-12	7
158	4	14	-31	8
157	3	15	-41	9
157	3	17	-31	12
158	4	19	-14	0
157	5	19	-6	-4
157	9	21	33	1
158	8	19	57	-3
158	5	21	72	0
157	5	21	49	4
157	5	16	9	-3
158	3	13	31	-5
157	3	10	32	-2
159	5	13	29	-1
157	5	15	0	1
157	6	14	15	3
158	7	15	14	2
158	8	17	19	5
158	5	14	34	7
158	6	18	-14	10
158	6	19	-28	13
157	3	18	-36	12
157	4	15	-26	-5
157	3	16	-9	-28
157	3	17	64	-32
157	5	19	60	-22
157	5	15	-1	-23
158	3	15	8	-28
158	3	17	-3	-15
159	5	14	9	-9
158	5	17	5	-5
158	5	19	7	1
157	5	20	17	7
157	7	20	21	2
158	6	21	19	4
157	2	19	14	14
157	4	22	25	15
157	3	25	11	18
157	7	24	-4	18
158	7	21	-17	18
158	2	18	-12	11
158	-1	17	-11	10
158	-1	17	-24	15
158	3	22	-24	14
158	7	21	32	3
158	7	19	70	-12
158	8	24	-3	-21
157	8	26	6	-21
158	6	20	13	-6
158	7	19	-2	3
158	5	16	24	4
158	7	13	-5	6
158	7	17	5	6
158	5	17	-6	6
159	3	17	-21	6
158	1	15	-34	5
158	4	18	-40	-1
158	6	21	-26	1
159	8	22	1	3
158	4	18	38	-16
157	3	14	50	-25
157	4	13	56	-22
156	2	15	35	-3
157	4	21	40	7
157	3	21	72	4
158	3	15	67	4
158	4	10	10	-11
158	1	18	-15	-2
158	5	25	18	5
157	5	22	-24	-3
158	5	20	-15	-14
157	7	22	27	-16
157	7	19	22	-7
158	3	17	56	-6
158	3	19	48	1
157	5	15	1	-1
158	3	15	-65	7
158	7	21	-14	18
157	9	17	23	21
157	10	19	-55	13
158	8	17	-45	8
157	7	14	-55	17
158	8	12	-31	18
157	6	11	8	7
158	8	14	-16	0
158	11	20	-15	3
157	12	24	16	22
156	11	23	61	29
158	7	23	5	23
158	5	20	-24	19
158	1	22	-21	17
157	3	21	-15	21
158	3	20	8	3
157	3	14	20	0
158	3	13	111	17
158	7	17	111	14
157	7	17	98	-6
158	6	21	66	-24
158	8	22	-55	-38
158	6	21	-42	-57
157	5	18	10	-53
157	3	13	3	-27
158	1	13	-15	-8
158	3	20	-54	-3
158	3	23	-87	4
157	-1	15	-47	8
158	0	18	-22	7
157	3	17	-18	17
158	5	20	-2	13
157	4	19	20	10
158	5	15	45	14
157	13	17	-7	11
158	14	14	2	10
158	2	9	39	9
157	-5	14	53	18
157	-2	16	64	13
158	6	24	22	10
158	13	27	21	13
158	12	26	17	11
157	14	28	-11	10
158	9	16	-21	7
158	5	11	-38	0
157	4	17	-36	4
157	2	19	-7	2
157	5	16	15	-6
158	3	17	46	-2
157	3	18	67	-2
158	5	22	37	1
157	5	21	25	4
158	2	15	30	8
158	1	17	23	11
157	1	21	27	10
158	1	19	18	8
158	1	14	-9	-9
158	-1	17	-24	-16
158	-2	14	-14	-24
158	1	16	21	-19
158	5	16	55	-13
158	8	17	46	-19
157	8	19	57	-6
157	5	17	38	-1
157	3	19	-8	6
158	4	17	-5	20
158	7	18	12	23
157	6	18	26	13
157	6	21	-64	8
157	9	25	-40	7
157	5	21	-16	4
158	9	21	-99	2
157	7	22	-90	-3
158	4	20	-84	-19
157	4	19	-67	-36
158	4	20	-23	-33
158	2	17	65	-20
157	0	15	94	-34
157	0	19	80	-32
157	4	19	120	-9
157	5	15	133	3
158	3	17	1	13
158	8	18	-30	4
157	5	19	-9	9
158	8	22	-14	15
157	6	17	31	12
157	5	22	-14	13
158	11	22	8	14
157	10	18	4	16
157	8	19	4	17
157	8	17	19	12
157	8	17	2	0
157	8	19	2	-5
159	9	19	-13	-4
158	8	13	12	-9
158	4	13	5	-6
158	-1	18	-5	5
158	2	20	-12	18
157	0	17	8	24
158	2	14	24	19
158	8	18	-12	15
158	8	19	-35	22
157	7	19	-21	24
157	9	19	19	31
158	15	19	7	29
158	8	22	13	14
157	0	21	16	3
158	5	22	16	-4
158	4	18	0	-11
158	5	17	-1	-32
157	2	13	66	-54
157	3	15	64	-52
158	5	20	-4	-39
157	6	18	4	-24
157	8	22	35	-10
157	3	21	-9	0
159	3	15	-8	8
157	0	11	-43	14
158	1	9	-53	21
157	3	8	-27	16
157	1	12	-15	15
157	2	17	0	12
157	3	17	8	13
157	3	20	66	18
158	3	16	68	18
157	4	22	2	22
158	10	25	-48	17
157	7	17	-53	17
158	6	18	-5	13
157	12	19	54	10
157	7	22	65	4
158	2	20	23	-2
157	0	15	36	-2
159	0	19	38	-9
157	1	20	-38	-15
158	5	18	-5	-18
157	14	21	43	-16
158	15	21	74	-7
158	9	22	51	-9
158	5	22	10	-5
157	8	17	27	2
158	8	20	-7	4
157	4	17	21	5
157	3	15	4	6
157	3	22	-5	4
157	5	20	17	-4
157	4	16	-1	-7
158	4	16	-18	3
158	8	19	-24	9
158	7	16	2	8
157	2	17	-31	0
157	2	23	-43	-10
158	5	21	-57	-1
159	12	19	-65	2
157	7	16	-50	1
157	8	21	-44	0
157	5	17	-15	2
157	-1	17	31	12
158	-1	17	96	12
158	-3	14	81	10
157	1	15	71	7
158	3	15	31	-5
157	0	15	25	-10
157	3	17	92	9
158	7	21	65	11
158	5	19	21	4
157	9	24	-3	-2
158	5	19	-5	-13
157	5	19	-14	-29
158	4	15	-8	-29
157	3	15	-17	-6
158	5	21	-27	-2
158	5	15	-33	2
158	5	15	-30	4
158	1	14	-3	10
158	0	15	1	16
157	1	17	25	13
158	1	19	41	15
157	6	24	34	8
157	4	19	60	6
158	5	20	81	6
158	14	23	19	4
158	23	20	-33	-9
158	12	21	-33	-17
158	3	15	-56	-7
157	4	17	-54	7
158	3	17	-39	9
157	4	15	4	18
158	3	17	-4	29
158	0	20	-51	23
158	-1	17	-2	15
157	-3	17	49	-8
158	1	24	45	-20
157	3	20	8	-23
157	5	15	42	-16
158	7	14	36	-7
157	5	18	-1	-3
157	1	17	19	-1
158	2	14	-6	3
157	5	18	-24	8
158	4	17	-29	11
157	12	18	-19	19
158	13	19	-22	16
158	13	19	-16	20
158	11	14	16	14
157	8	16	-8	10
157	9	19	0	10
157	8	18	32	0
157	7	23	38	-13
157	4	22	67	-27
158	3	15	86	-17
158	1	11	79	-8
157	2	19	58	-9
157	7	22	10	0
157	6	17	12	8
157	5	12	16	-4
158	1	14	-10	-22
158	1	19	-7	-18
158	5	17	-34	-3
157	2	19	-13	-1
157	3	22	58	6
157	1	19	48	9
157	3	17	32	2
157	1	15	5	2
157	-1	17	-69	4
158	5	19	-81	-3
158	7	17	-24	-3
157	8	19	-5	-2
158	4	21	-90	-8
157	5	23	-85	3
157	11	23	-58	11
157	5	22	-59	15
158	4	19	19	15
157	5	14	59	7
157	4	14	187	15
158	4	19	155	6
158	5	27	5	2
157	5	25	18	1
158	5	20	-9	-3
157	5	20	-18	-6
157	3	15	32	-12
158	7	12	70	-5
158	5	16	72	-4
157	4	16	42	-5
158	1	14	20	2
158	1	17	-33	0
157	4	16	-47	-7
157	0	14	4	-4
158	-3	19	36	4
158	-1	18	28	16
157	1	15	56	20
157	5	18	28	22
158	16	19	-63	32
158	24	24	-58	22
157	14	17	-30	12
158	6	19	-26	22
157	9	24	-9	18
158	6	19	6	6
158	7	18	1	-2
157	3	11	-18	-22
158	3	16	-23	-35
157	5	19	-16	-22
157	3	16	2	-18
157	4	16	34	-16
158	3	15	31	-14
158	3	14	-3	-6
157	4	16	-5	2
158	4	19	13	-3
157	8	18	3	-2
157	4	19	-19	-2
157	4	21	-41	8
158	9	18	-20	13
158	4	16	-3	13
157	3	17	26	15
158	13	17	38	7
157	17	16	-9	2
158	10	15	14	-4
157	3	18	19	-1
158	-3	18	-12	-3
158	-9	16	13	7
157	-5	15	28	7
157	-13	15	40	2
158	-20	16	91	-1
157	-9	17	77	-4
157	4	21	7	-3
158	13	24	33	2
158	30	24	-10	3
158	21	26	0	-4
157	1	28	18	0
157	-3	24	17	4
157	3	23	63	8
158	14	25	-26	14
158	19	23	-40	10
157	15	21	-29	8
158	8	17	-30	0
158	10	17	9	-5
157	7	19	25	-9
157	-1	17	47	-12
158	4	18	22	-6
157	1	17	10	7
157	1	19	4	11
158	4	15	-22	10
157	5	17	-54	12
157	11	22	-49	3
157	10	18	-25	-6
158	9	17	-46	-12
158	4	14	-10	-17
157	2	15	24	-11
157	3	17	16	4
157	1	17	49	10
157	2	14	75	6
158	4	15	41	7
158	1	21	-4	1
158	1	22	-34	4
158	5	22	-40	2
159	5	21	-4	-4
157	10	19	5	-11
159	8	20	0	-14
158	5	20	9	-3
157	7	14	42	6
157	3	13	91	14
157	0	16	72	18
158	-3	17	37	16
157	0	21	18	19
158	5	18	24	16
157	9	21	64	1
158	11	22	-4	-19
157	10	22	-41	-40
157	5	20	-28	-45
158	0	16	-19	-17
157	3	19	4	7
158	4	13	-50	13
158	3	14	8	10
157	7	18	81	7
158	6	21	39	14
157	8	19	37	4
158	5	11	-9	-3
157	12	15	17	-15
158	19	12	87	-19
157	12	18	22	-5
158	10	24	-45	8
157	7	22	-34	10
157	4	19	-27	6
157	-4	17	-77	11
158	-1	20	-91	14
158	3	23	-86	30
157	1	22	-78	24
157	-3	11	-38	22
158	-1	11	6	20
157	0	10	90	9
158	5	18	138	-1
157	11	18	77	-19
157	5	17	61	-26
157	7	21	61	-29
158	9	18	-3	-16
158	4	16	2	-16
157	7	17	-15	-19
158	12	17	-62	-3
157	10	17	-38	-7
157	5	19	-19	-6
158	8	18	-22	11
157	1	15	5	22
157	0	19	54	26
157	3	16	106	28
157	1	18	92	28
158	3	17	13	24
157	3	19	8	15
157	2	19	19	4
157	7	18	-20	-8
158	3	18	-16	-17
158	-1	16	-22	-16
157	3	17	-53	6
157	2	18	-59	16
157	5	22	-59	9
158	7	19	30	19
157	7	23	83	22
158	9	24	-32	6
159	5	14	36	-3
158	3	9	49	-2
158	5	15	5	-10
158	5	14	103	-18
157	-6	15	37	-13
158	-17	21	22	2
158	-12	21	4	4
157	1	22	-20	6
158	8	19	-17	-1
158	9	18	-42	-14
158	10	14	-78	-10
158	12	14	-113	0
158	15	22	-57	8
158	19	20	-32	11
157	16	22	15	15
157	12	23	72	10
157	18	22	123	9
158	18	21	142	11
157	18	20	90	14
157	14	16	64	15
157	15	23	34	7
158	2	25	0	2
159	-2	23	-13	-10
157	0	21	-15	-20
158	0	16	-18	-23
157	2	21	-22	-15
157	1	18	-38	4
158	1	13	-50	21
158	-2	11	-16	25
159	1	16	0	7
158	0	20	58	-2
159	2	19	116	-6
157	3	17	88	-19
157	0	14	50	-17
157	3	18	20	-21
157	4	24	-18	-30
159	4	14	-25	-28
157	2	15	-37	-27
157	4	18	-60	-14
158	5	16	-43	-1
158	5	22	-36	14
157	9	21	-27	25
158	5	17	-32	29
157	8	17	-42	30
158	5	17	-50	20
157	7	19	-64	-2
157	1	19	-48	-13
157	2	21	-41	-19
158	5	22	21	-23
158	7	18	110	-2
157	5	12	113	14
158	3	9	126	15
157	9	9	99	8
158	10	18	53	-7
157	12	15	33	-5
157	23	13	-64	5
158	26	22	-117	6
157	14	25	-94	11
158	5	23	-38	10
158	-6	15	1	4
157	-15	14	88	10
158	-18	22	97	10
157	-24	16	51	12
158	-14	15	121	19
158	6	20	89	19
157	8	17	70	17
158	5	18	61	22
157	9	22	22	19
158	11	25	-23	21
159	13	25	-98	16
158	8	20	-53	2
157	8	22	-38	-9
158	9	17	-73	-17
158	5	12	-95	-24
158	6	21	-93	-27
158	7	22	-97	-19
158	7	19	-69	-28
157	5	15	26	-44
157	3	11	80	-46
157	4	14	156	-35
157	3	14	168	-20
157	3	22	64	-13
158	3	22	13	2
157	8	16	-5	16
158	8	16	-60	22
158	7	24	-55	20
158	18	26	-24	24
158	16	19	6	18
158	6	15	78	22
157	4	11	66	27
158	3	12	22	20
158	2	15	37	-2
157	3	16	50	-23
157	5	17	-15	-17
158	9	21	-57	0
158	15	24	-27	15
157	10	23	-55	21
158	6	17	1	21
157	9	18	47	16
158	5	26	22	19
157	3	27	22	29
158	1	21	-30	27
158	-1	19	28	17
158	0	19	1	9
157	-1	17	-85	-9
157	-4	21	-64	-10
158	-14	20	-58	-10
157	-21	17	-9	-15
157	-27	13	37	-17
158	-26	13	93	-7
157	-1	13	71	-5
157	16	11	45	-7
157	26	14	70	6
158	28	14	60	0
158	25	17	63	-13
158	32	19	19	-11
158	19	17	-35	-9
157	9	23	-33	-5
158	4	24	-5	0
157	-5	17	7	3
158	3	15	4	3
157	10	17	12	2
157	7	15	14	2
157	19	15	25	5
158	22	17	2	-2
158	11	19	23	-2
157	11	24	47	2
158	8	23	-11	9
158	21	23	-24	22
158	16	19	-31	16
158	7	13	-55	19
158	25	19	-58	11
158	13	25	-45	3
158	-31	27	-5	-2
158	-54	22	33	-11
158	-41	17	44	2
157	-14	15	23	2
158	-3	15	10	-13
158	-14	14	49	-18
158	-7	11	36	-3
158	20	15	-25	4
158	18	14	-64	3
157	34	18	-104	3
159	20	19	-75	-1
158	-11	19	1	7
158	-10	21	54	9
157	-20	18	47	10
157	4	23	30	11
157	26	22	-3	2
158	27	15	1	2
157	26	15	108	-2
157	23	17	92	3
157	23	19	62	10
157	18	21	113	0
157	18	20	59	-11
158	12	19	37	-10
157	1	16	69	-8
157	-19	19	15	-9
158	-45	20	-17	-3
158	-24	23	-14	-1
157	9	19	-12	3
158	7	15	-26	7
158	17	17	-35	3
158	23	13	0	7
157	1	8	18	5
157	14	17	-4	0
157	44	23	-1	-1
157	33	21	-1	3
158	19	24	-34	4
158	17	19	-63	6
158	-6	11	-57	3
157	-23	10	-19	-3
159	-16	15	-15	1
157	10	17	-26	2
157	22	17	24	0
157	106	22	51	-14
157	158	22	12	-19
158	62	15	-4	-13
158	14	11	16	-6
157	-37	16	1	-1
158	-115	14	-14	-1
158	-185	13	0	5
158	-201	18	-6	10
158	-55	19	20	1
158	42	16	43	-4
158	-7	16	32	0
157	5	22	28	0
157	-25	30	0	0
157	-64	28	-17	-4
158	5	25	-14	-4
158	13	22	-1	-1
157	46	21	38	-4
158	75	24	38	7
158	71	25	2	15
158	84	14	4	13
157	63	18	-4	12
157	52	26	-1	11
157	24	20	-6	15
157	4	22	-8	6
157	3	18	29	-7
157	5	14	34	-6
158	8	15	36	-2
158	15	15	34	3
158	20	12	15	3
158	4	15	15	2
158	6	14	40	-2
158	12	12	29	0
158	12	20	-17	8
157	4	19	-26	9
157	0	19	-16	17
157	-4	21	6	18
157	-9	23	19	12
158	-25	22	8	12
157	-33	20	-28	12
158	-6	18	-36	11
158	-3	18	-22	1
157	-3	21	-24	-11
158	12	25	2	-11
157	11	23	30	-12
158	5	17	45	-17
157	5	17	35	-18
158	11	15	-8	-12
158	9	14	-18	-4
159	8	13	-7	5
157	4	11	-17	11
158	3	13	-27	4
157	1	17	-15	-3
158	5	17	5	-1
157	9	20	2	9
157	9	22	6	8
158	10	14	46	2
157	6	13	59	0
158	3	22	54	-1
158	8	21	46	-3
158	12	23	28	-1
157	7	21	9	7
157	4	13	20	11
157	0	13	52	15
158	0	14	38	7
158	4	15	-37	11
158	5	19	-88	8
158	7	17	-26	-10
158	23	15	49	-5
157	40	17	82	-9
157	20	17	12	-14
157	5	21	-15	-4
158	4	15	16	3
157	0	14	-20	3
157	-15	18	-11	-1
158	-42	17	-30	-1
157	-41	13	-1	0
157	-10	15	23	-3
157	7	21	7	-11
158	8	24	15	-4
157	11	23	4	1
157	-1	21	16	4
158	5	18	27	13
158	8	19	36	16
158	10	17	20	16
158	2	17	-4	9
157	-11	19	-36	6
158	-5	16	-57	6
157	-2	22	-16	3
157	-17	23	-4	-1
158	-49	21	-13	4
158	-31	21	43	6
158	12	22	69	7
157	10	22	71	10
158	38	25	74	1
157	56	15	41	-6
158	104	8	8	-1
157	175	12	-25	1
158	133	15	1	-4
157	71	15	3	-5
158	5	17	-52	-1
158	-46	24	-73	4
157	-101	24	-22	-1
158	-174	21	12	-3
158	-72	23	-8	-1
157	16	24	-7	0
158	13	24	1	6
158	56	21	1	3
158	51	21	8	-1
158	34	19	22	-5
157	20	21	-4	-9
158	-7	19	20	3
157	-5	14	54	7
157	-11	15	37	-1
157	-19	17	39	4
157	-23	16	23	-2
158	-16	19	-17	-4
157	-5	18	-23	0
157	12	18	9	-4
158	28	21	30	8
158	27	15	37	4
158	16	14	37	3
157	1	14	9	-3
158	-7	14	-37	-1
158	-4	18	-43	4
157	-16	23	-31	-3
158	-15	25	-48	4
158	0	21	-7	2
158	-8	18	14	-1
157	-13	15	16	-8
157	-20	11	38	-4
158	-7	11	40	2
157	85	12	54	1
157	162	15	46	4
158	95	12	47	-1
157	3	13	24	-1
157	-61	16	-32	2
158	-116	19	-52	7
158	-155	14	-3	8
158	-177	7	13	13
158	-65	14	-6	10
157	0	16	-1	7
158	82	20	-8	5
158	198	24	-3	-4
157	160	18	-13	-1
158	115	3	1	-5
157	48	1	-1	-6
157	45	7	-18	-12
158	39	5	-20	-15
158	17	4	-35	3
157	-6	0	26	2
157	-126	-4	78	-7
157	-158	-3	30	1
158	-229	8	33	7
157	-206	17	57	6
158	-18	29	10	6
158	75	33	48	-7
157	173	42	92	-18
157	193	59	49	-8
157	107	62	19	2
158	30	69	16	2
157	-77	62	12	9
158	-105	30	26	4
157	-58	21	2	4
157	33	29	-24	7
157	77	7	-17	-2
158	31	-1	-19	5
157	79	19	-3	4
157	108	32	-2	0
158	116	38	8	5
158	127	73	13	4
157	116	83	2	8
158	-18	51	-10	-3
158	-169	25	-54	-5
157	-132	6	-26	0
157	-103	-5	-15	-2
158	-146	-31	-92	7
157	-98	-9	-88	4
159	42	9	-27	0
157	12	14	8	2
158	-1	26	-1	4
158	-11	-13	-3	7
157	13	-6	42	4
158	144	14	77	12
158	98	5	111	12
158	65	31	84	10
158	0	37	-2	0
158	-5	-22	-25	-4
157	48	-3	11	0
157	4	41	0	3
158	10	1	-2	5
158	-9	-7	43	-1
157	5	-26	50	4
158	2	7	25	2
157	-24	60	-32	2
158	-8	39	-23	11
158	-15	3	41	10
157	-9	1	40	-13
157	-8	5	-47	-8
157	-5	7	-97	10
158	-2	15	-38	-4
158	-5	7	-26	3
157	-1	2	-13	-1
158	-6	6	14	-5
158	19	16	-19	-8
158	95	15	16	-15
157	95	9	95	-6
157	5	2	94	-12
158	-16	15	32	-1
157	-73	19	21	9
158	-157	22	32	2
157	-147	42	22	-10
158	-23	59	2	-10
158	42	71	9	-7
157	4	56	26	2
158	47	50	8	11
157	38	41	1	-1
158	42	33	-2	0
157	36	19	-6	1
158	27	9	-19	-6
157	20	9	-12	-1
157	-26	4	6	4
157	10	7	14	21
158	70	6	6	22
158	60	9	6	2
157	-78	10	24	4
158	-92	13	26	3
157	-20	14	19	4
157	-39	15	7	8
158	8	14	17	6
158	120	8	-7	12
158	193	1	-15	11
157	128	-3	22	-4
158	53	5	17	-10
157	-21	6	-2	-6
157	-32	15	0	-2
158	15	27	-2	-2
158	-31	35	-17	-3
158	-52	42	-6	0
157	-104	40	-12	5
157	-81	37	3	6
158	-7	25	25	13
157	20	22	15	14
158	35	28	10	3
158	22	28	-14	6
158	27	19	-22	-3
158	12	14	15	-5
157	1	11	21	0
158	0	11	15	-10
157	-5	24	18	1
158	7	29	32	5
157	-5	30	77	9
157	-11	16	83	14
158	-11	5	15	-2
157	-20	2	-109	-2
157	19	8	-101	8
158	29	14	-34	7
158	32	16	-83	8
157	58	17	-37	-8
158	52	13	16	-24
157	20	13	28	-29
158	-10	12	71	-14
157	6	8	129	0
157	84	4	62	2
158	137	14	-4	4
158	75	29	86	1
158	1	21	60	3
157	-57	24	25	0
158	-158	19	-7	0
158	-210	9	-28	12
158	-120	15	-5	8
157	-1	18	8	-4
158	10	22	34	-9
158	36	18	15	-5
157	60	15	-14	12
157	37	15	-61	14
157	31	18	-42	14
157	16	19	-19	7
157	14	24	-18	-6
157	11	25	4	-2
158	3	21	-3	4
158	-2	19	-3	8
158	10	16	-48	25
158	12	21	-13	21
158	-20	17	79	11
157	-78	17	87	7
157	-71	19	72	-12
158	-6	12	32	-3
157	-1	7	-11	2
158	19	5	-27	-2
158	55	3	-16	0
158	139	5	-4	-1
157	241	23	6	2
157	191	37	-11	-4
157	11	40	-23	3
157	-141	28	37	3
157	-112	20	72	6
158	-66	27	27	-1
158	-75	30	1	-8
158	-29	32	8	-6
158	-27	25	5	-9
158	22	21	-6	-4
157	35	28	-30	-6
158	35	25	-30	-8
157	43	17	-3	-9
157	-7	15	-2	-4
157	27	14	-18	6
158	26	13	-4	3
157	21	12	17	2
158	9	11	6	2
158	-1	14	10	2
158	3	16	12	-1
158	-6	17	14	4
157	5	17	32	3
157	-5	17	7	7
157	-9	11	-6	6
158	-13	15	17	-2
158	-1	18	65	4
158	-6	14	50	-1
158	-7	16	-45	4
158	-6	13	-54	6
157	8	7	9	-8
158	92	9	16	-8
158	119	17	22	-2
157	45	24	37	11
157	8	24	55	4
158	-39	10	70	-3
157	-128	1	-28	6
158	-137	5	-96	11
158	-29	10	-49	9
158	30	18	-26	4
159	-28	30	-12	2
157	-13	28	37	3
158	-9	23	47	5
157	10	13	5	6
158	10	14	-25	4
158	-4	17	-2	1
158	21	22	-11	4
158	13	29	-4	-1
157	40	24	29	-8
158	23	21	-4	11
158	24	17	15	17
158	30	20	49	6
157	7	23	43	-2
158	0	23	61	-2
157	-8	18	70	0
158	24	13	42	-1
157	39	18	-12	-3
158	32	23	-14	-9
157	27	19	-4	-6
158	19	9	-3	-3
158	12	6	25	2
158	7	11	30	5
158	5	16	-3	2
157	-9	21	-36	10
157	-9	25	-40	4
158	-13	32	-41	3
158	-10	38	-24	7
158	-3	37	-18	6
157	2	31	-29	-5
158	10	29	-7	-21
157	20	25	43	-8
158	32	20	95	-2
157	-25	19	55	2
157	-83	7	15	-1
158	-47	7	30	-15
158	-17	7	15	-12
157	-35	-1	11	-1
158	12	8	-6	2
158	115	29	10	6
158	181	45	4	11
159	146	33	-35	13
158	28	21	-4	10
158	-40	13	6	10
157	14	7	45	6
157	67	8	85	4
157	-12	-7	15	5
157	-56	-18	-20	1
157	-88	-8	29	-12
158	-111	-4	61	-18
157	-33	1	26	-12
157	34	15	-50	1
158	83	26	-38	-4
157	138	39	-13	0
157	132	58	-65	3
157	4	69	-43	0
158	-28	66	-39	5
157	-105	53	-40	3
158	-180	50	-16	12
158	-142	51	15	13
157	-31	38	69	14
158	46	25	49	15
158	0	0	20	12
158	4	-47	24	9
158	-40	-50	41	-2
157	31	-1	54	-1
158	55	50	29	-6
157	25	88	-32	2
157	42	93	-46	8
157	-30	13	16	-2
158	-29	-30	23	-1
157	-5	-25	23	-9
158	24	-37	30	-2
158	28	-6	26	7
157	40	12	18	7
158	61	2	-14	0
157	64	2	-13	-6
158	-37	-2	-1	-5
158	-172	6	-7	-1
157	-154	12	-27	4
157	-124	-14	-14	0
158	-7	-46	10	0
158	162	-76	12	4
159	259	-40	-5	12
157	275	0	-19	9
158	213	-3	5	-2
157	48	25	21	3
158	-77	72	6	-4
158	44	146	31	0
158	3	195	53	-7
158	-126	149	27	-9
157	-101	72	13	2
157	-106	43	1	2
158	-34	29	10	4
157	-13	40	14	-2
157	-12	30	-3	2
158	-15	11	10	2
158	12	9	13	1
158	40	-6	11	11
157	22	-7	4	9
157	22	-20	2	9
158	-13	-14	7	8
157	16	-7	-1	-4
157	-13	-6	-5	-9
157	-36	5	-8	-5
158	-20	25	5	-6
157	-17	38	9	-4
158	10	26	4	-1
157	21	22	23	-1
158	30	12	23	0
158	27	15	10	0
157	24	-4	-17	7
157	-6	-26	-23	-3
159	-22	12	37	0
158	4	7	26	4
157	-2	-32	6	2
157	-21	-1	49	6
158	8	7	68	-4
157	31	41	34	0
158	-36	69	-37	8
157	-53	33	-7	11
158	-19	33	34	9
158	-56	13	-22	2
158	-86	-11	-51	-10
158	-8	-9	-51	-4
158	154	-13	-36	6
158	117	-6	-25	6
157	42	12	-19	8
158	51	34	-5	-2
158	41	-8	36	-3
157	59	-81	47	-12
158	137	-51	13	-12
158	98	64	23	-11
157	-73	130	40	-7
157	65	65	64	1
157	51	32	40	2
157	-89	99	-50	17
157	-61	88	-81	18
158	-116	29	-12	9
157	-45	22	18	4
158	-24	14	-3	7
158	-20	10	13	7
158	-5	22	1	3
157	-15	14	32	1
158	-4	11	54	1
157	-15	12	45	3
157	4	8	29	3
158	-3	7	16	0
157	6	9	23	-9
158	11	10	14	-10
157	24	9	37	-6
158	15	13	24	-3
158	-34	8	-16	5
157	-59	10	-10	7
157	-43	12	12	4
158	-20	11	2	8
157	1	13	-1	1
158	53	7	-7	4
158	58	4	-22	11
158	27	9	-13	3
157	0	9	3	0
157	-18	5	15	7
157	-8	15	15	6
158	34	33	8	-2
157	58	33	1	-1
157	74	34	4	-3
158	117	42	15	-10
157	82	39	15	-10
158	13	31	6	-5
158	-9	20	-3	5
158	-23	15	-6	7
158	-19	10	4	4
157	81	2	0	9
157	90	-18	11	17
157	-70	-40	29	19
157	-102	-27	26	10
158	-126	-14	28	-7
158	-202	-17	17	-23
157	-47	19	-42	-13
158	169	54	-36	-1
157	146	114	11	-4
157	93	152	2	0
158	53	82	29	0
158	-42	30	26	0
158	-29	19	17	-2
158	-15	13	27	2
157	-29	23	21	1
157	-53	31	22	4
157	-17	18	-5	7
158	43	-10	-15	2
158	38	-9	-16	5
158	39	-18	-11	8
158	24	-12	2	7
157	40	8	9	-2
157	32	20	-16	0
158	26	43	-27	0
158	-17	30	-3	4
158	-107	24	2	7
157	-45	13	22	4
158	-19	-17	32	8
158	-60	10	54	-2
157	-64	23	68	-10
158	-46	19	9	-3
157	-3	21	-55	5
157	-4	9	-35	-1
158	-8	10	-20	3
158	13	1	-29	2
158	33	1	-9	6
157	51	-2	-9	2
157	71	2	9	-8
159	62	3	20	-13
158	71	15	27	-19
158	60	43	49	-9
158	24	58	37	-7
158	23	52	22	0
157	1	24	18	7
157	-23	26	6	0
157	-41	29	-7	-6
157	-66	18	-11	-6
157	-72	17	-23	12
157	9	8	-1	20
158	159	6	31	17
158	110	3	62	4
157	41	2	39	0
157	43	-6	-9	5
158	-85	-4	21	2
157	-170	36	25	7
157	-47	35	27	6
158	157	-46	9	-5
158	68	-77	-26	-5
157	5	28	-10	-3
157	-12	130	8	-6
158	-39	108	6	-6
158	-5	65	4	3
158	-81	64	12	11
158	-110	22	22	11
157	-138	22	31	3
158	-40	27	31	-4
158	42	19	48	0
157	113	22	18	-1
158	173	9	-61	7
158	169	14	-90	9
158	143	-4	-29	2
157	34	-4	-9	18
158	-37	9	-9	12
158	-68	12	15	8
157	21	-8	19	5
157	48	-6	32	-10
157	31	32	-4	-10
157	-5	32	-3	-5
157	-105	7	13	0
157	-8	11	32	4
157	68	12	29	4
157	2	-4	-3	-4
157	-31	-1	14	3
157	-31	21	22	0
158	-34	26	26	2
157	-15	13	2	9
157	-13	22	-2	2
158	-22	21	4	2
157	-20	25	1	0
158	-46	25	16	-1
157	-29	32	12	2
158	-24	34	11	2
158	-22	30	24	-1
157	-9	39	43	4
159	-37	14	27	2
157	-39	5	-2	-1
157	38	-3	5	-6
158	75	-10	5	-4
159	80	9	27	0
157	85	15	24	-4
158	32	13	-46	-1
158	28	29	-61	-3
158	14	36	-8	3
158	-5	25	-19	14
157	-5	6	-25	18
158	-10	1	6	25
157	39	15	24	0
158	100	14	38	-10
157	74	7	28	-8
158	18	-7	37	-10
157	-15	-6	9	-6
157	-155	28	-11	0
158	-210	49	21	4
157	-140	42	10	10
157	-68	38	2	4
157	-47	33	10	-9
158	60	31	15	-12
158	175	31	24	-1
157	158	43	1	2
158	121	40	-7	-12
157	20	12	15	-9
157	11	20	15	-6
158	-67	25	27	-4
157	-132	14	29	4
158	-71	13	10	4
157	-44	2	4	7
158	42	8	-1	4
157	74	5	14	8
157	111	1	32	10
158	180	6	15	16
158	130	8	-21	17
158	37	7	-28	4
158	-35	6	-44	7
158	-19	27	-36	7
159	67	55	-22	2
157	54	39	5	-5
158	-52	-75	48	-7
158	-106	-112	24	-5
157	-67	-8	0	-2
157	36	-2	-21	4
158	140	-40	-23	4
157	56	29	-17	10
158	0	117	-5	2
157	13	132	16	0
157	-117	117	10	-1
157	-161	72	18	-4
158	-40	62	14	0
157	-35	60	13	9
158	-136	29	29	14
157	-59	30	55	1
158	-84	14	65	-4
157	-104	11	55	-6
158	13	-7	30	-7
157	133	-15	25	4
158	169	-3	46	7
158	84	2	17	7
157	16	3	8	4
158	-46	-4	8	-11
158	24	9	-23	-26
158	11	20	-35	-25
158	-63	31	-15	-15
157	-90	28	13	-5
158	-45	10	31	-1
157	21	-12	37	-4
158	37	-23	-35	6
158	95	-15	-50	12
157	107	-11	6	9
158	103	-8	-14	9
158	73	6	-24	11
157	77	17	5	11
157	68	34	18	7
157	62	35	-4	9
158	4	26	-9	7
157	-37	25	8	3
157	18	22	13	6
158	2	46	12	7
157	-40	58	-1	0
158	-78	45	-11	2
158	-87	21	-4	6
158	-52	17	8	4
157	-7	17	2	2
157	-13	-2	2	0
158	-27	0	12	4
158	-22	-1	28	-1
157	16	2	28	-2
158	33	11	13	3
157	49	17	12	4
157	83	33	14	-4
158	1	55	20	-1
157	-23	57	26	7
157	3	42	24	5
158	12	28	1	1
157	4	22	-12	-5
158	-41	26	9	-5
158	52	15	50	-18
158	107	-3	40	-25
158	24	-16	-45	-8
158	-48	5	-54	8
157	-50	-4	-2	8
157	-130	-32	9	17
159	-253	-4	21	12
158	-162	35	18	6
158	33	35	-2	7
158	53	18	1	-1
157	70	33	-14	-1
157	69	33	-11	0
158	120	33	6	-1
158	196	40	5	2
157	124	32	-1	7
157	77	23	5	7
158	-34	14	17	7
157	2	-1	27	0
157	27	-13	34	-8
158	-17	-9	17	-10
157	-9	36	4	-6
158	-55	81	10	-2
157	-45	24	17	2
157	-45	0	22	8
157	17	19	28	3
157	30	10	10	0
158	-1	16	-16	-4
157	-6	3	3	7
158	-49	10	30	7
157	-28	10	23	2
157	66	1	-8	4
158	102	9	4	2
158	54	1	48	6
158	43	17	45	5
157	-30	26	18	6
158	-102	28	-33	14
158	-33	32	-51	6
158	83	22	-15	-10
158	52	9	-14	-2
157	-24	-18	-22	4
158	-37	14	-8	-2
158	-51	90	-6	0
158	-34	55	0	-4
157	-51	-10	10	-1
158	-32	-4	27	-3
157	-39	-27	34	-10
157	-5	-56	17	-4
157	74	-32	13	3
158	99	-11	25	2
157	112	-5	24	-2
157	-12	30	7	-7
158	-45	85	8	-1
157	16	92	16	10
157	-77	34	6	12
157	-96	22	-6	-6
158	27	39	6	-10
157	58	30	9	2
158	-6	91	-1	-1
158	-5	139	0	9
158	11	92	-10	8
157	17	42	0	-2
158	34	33	45	2
158	71	10	56	2
158	189	5	-10	3
157	146	14	-60	10
157	24	14	-12	1
158	-23	8	11	0
157	-26	11	9	7
157	13	3	28	2
157	-16	-18	10	6
158	-15	-15	8	3
157	-51	-19	-12	-1
158	-52	-24	-33	-2
157	49	-26	-20	-4
158	124	-14	16	1
157	91	10	63	7
157	-3	-1	31	9
157	-67	-8	12	10
158	-150	41	18	7
157	-164	73	12	-12
158	-111	22	22	-10
157	-15	1	12	-4
158	-32	15	15	-3
157	-50	9	12	0
157	10	19	0	-2
157	24	9	11	1
158	52	15	10	2
158	62	5	1	5
158	79	14	-14	13
157	31	38	-2	12
157	1	48	42	8
157	-13	38	31	3
157	27	9	2	-1
158	94	19	21	5
158	35	-11	27	9
158	21	-18	35	2
158	-29	2	8	0
158	-88	15	-39	-1
157	-61	45	-42	-10
157	11	33	-8	-5
158	8	30	13	1
157	-83	26	18	4
157	-79	19	22	15
157	-58	26	-19	25
158	16	14	-27	22
158	80	3	8	2
157	90	-21	-2	-9
158	117	-45	-1	-11
157	116	-29	4	-9
157	143	-10	-6	-11
157	139	-2	6	0
158	11	36	6	0
157	-56	140	10	-6
158	-20	126	17	-2
158	-91	3	18	-3
157	-67	31	30	3
158	42	79	29	1
158	11	77	5	-4
157	-17	65	1	-2
157	-54	13	26	2
158	-77	-3	24	2
157	-4	14	26	6
158	31	8	25	2
157	-15	-4	3	4
158	-26	-3	-12	3
157	-6	-5	-1	3
158	-30	0	13	4
157	-38	-22	1	1
158	-24	-47	-7	-7
157	104	-30	-19	-18
158	161	8	-5	-4
157	57	15	39	-5
159	42	19	31	-8
157	-17	85	-34	6
157	-35	154	-39	4
158	1	81	13	7
158	-21	-36	-3	4
159	-7	-18	4	2
158	-21	8	17	3
159	-12	7	-12	4
157	-5	8	-5	6
157	-29	15	19	2
158	-77	16	38	0
158	-84	26	23	-3
157	-42	29	5	-1
157	-14	10	-1	1
158	38	10	16	4
157	71	2	7	4
158	56	3	-7	4
158	-2	6	0	1
157	1	1	-2	1
158	50	2	3	3
158	40	10	-5	1
158	69	49	5	5
158	94	73	13	7
157	106	17	15	7
157	78	-3	17	9
158	-11	14	27	5
157	-29	0	38	0
157	-3	9	27	2
158	24	1	29	3
157	2	-4	-8	-2
157	-10	9	-33	-9
158	55	35	0	-13
158	54	44	29	1
158	-53	23	40	4
157	-92	19	21	-5
157	-84	28	-22	0
157	-118	27	-27	-1
158	-117	17	-5	0
158	2	22	0	0
158	11	9	19	2
158	-18	-5	38	6
158	33	2	45	4
158	-29	-3	9	6
158	-7	0	-20	11
157	5	-2	7	4
158	-53	-2	-16	7
157	12	25	-18	10
158	57	58	3	3
157	6	62	-14	3
158	28	37	3	4
157	130	43	10	1
157	130	51	25	-7
157	18	42	29	-9
157	-16	29	13	-8
158	-25	15	15	-17
157	-39	25	23	-11
158	12	29	17	-4
158	36	47	-12	4
157	-10	46	-11	11
158	-46	-7	3	18
158	-15	-4	23	20
157	-2	19	55	-3
157	25	-2	22	0
157	65	8	-38	0
158	133	17	-27	-2
157	190	26	-2	5
157	81	19	0	-1
157	-58	-5	-8	2
157	-123	-3	-4	1
158	-146	-6	17	-8
158	-135	2	9	-2
157	-33	7	17	2
158	7	13	4	2
157	43	15	3	7
157	73	13	19	3
158	-33	15	-2	10
157	-64	13	-13	10
158	-52	19	-5	0
157	22	16	0	-3
157	29	17	-2	-5
157	38	23	-2	-2
157	68	23	1	-6
157	77	27	6	-2
157	75	21	8	4
157	-8	29	9	4
157	-21	48	45	7
158	44	10	109	-1
157	95	-28	72	-5
157	50	1	8	-1
157	35	54	33	0
157	35	65	13	-4
158	-33	-1	-4	6
158	-65	-22	-22	8
158	-142	-8	-29	2
158	-191	-15	8	4
157	-149	-9	-1	0
157	-53	8	12	-3
158	31	32	15	-3
158	24	34	-4	4
157	106	45	-15	10
158	100	79	-18	9
158	21	94	-7	7
157	-34	25	-3	6
157	-65	2	6	0
157	9	19	7	-3
158	46	5	2	-2
157	103	8	12	-1
157	169	-23	25	-4
158	215	-62	29	-5
157	102	-51	16	-1
157	-115	2	-30	1
158	-200	11	-10	7
158	-200	27	42	7
157	-135	118	1	9
158	52	164	-26	13
157	164	57	-25	7
158	158	-19	-2	-7
157	145	6	6	-11
157	-10	4	-8	-6
158	-102	-3	12	3
158	-78	11	1	6
158	-56	21	2	1
158	-30	76	8	-6
158	85	106	15	-9
158	149	30	17	-1
157	75	19	2	0
158	34	39	8	-1
157	-25	47	11	0
157	-17	17	9	-1
158	15	-3	15	1
158	-28	22	19	2
158	-16	-8	22	4
157	36	2	46	-2
157	26	-1	90	-4
157	-11	-6	49	0
157	-38	2	-49	7
158	-84	1	-35	13
157	-140	0	30	11
158	-97	-2	17	15
158	-57	7	8	9
157	-85	0	10	-2
157	-34	6	-10	-11
158	7	5	-18	-13
157	81	1	-2	-8
157	119	3	2	-1
157	134	14	8	4
157	107	16	22	0
158	10	14	0	3
158	-36	14	7	0
158	-107	27	12	2
158	-87	49	-2	4
158	-10	30	-15	7
157	-33	17	-13	9
157	-41	19	4	-1
158	26	19	-5	6
158	47	20	6	4
157	94	6	10	6
157	103	11	6	8
157	-5	19	10	2
158	-5	18	22	-9
158	135	20	16	-10
157	180	20	-34	-3
158	92	22	-51	-6
157	31	28	-4	2
158	-9	34	47	8
157	45	42	83	12
157	50	33	66	14
157	12	10	6	4
157	19	0	17	-3
158	-12	1	23	-8
157	-103	2	2	-8
158	-180	3	0	-1
157	-62	8	-17	-4
158	-34	14	-1	-6
158	-64	1	4	-2
158	-32	-5	0	-3
157	-32	8	-6	2
158	-25	-7	-10	4
158	-48	-20	4	5
158	-10	-1	27	18
158	-3	46	43	15
157	-29	98	5	2
158	-19	76	-43	1
157	-13	20	-43	-1
157	35	32	7	4
157	64	56	10	4
157	47	62	12	-6
157	77	36	24	-7
159	49	17	14	-7
157	43	17	12	-6
158	122	7	2	-5
157	51	19	2	-4
157	-17	11	0	1
158	-22	4	9	8
157	-28	-5	8	7
157	-5	-7	4	4
158	-61	5	16	6
158	-81	10	29	4
158	-37	13	39	-1
158	-28	19	8	2
158	-16	26	-22	9
157	11	22	11	2
157	60	18	21	2
157	100	15	-14	6
158	72	15	-18	2
158	28	13	-16	0
157	43	15	-4	-1
159	103	24	6	-1
158	71	26	17	-3
158	8	25	13	2
157	-22	17	10	13
157	-34	11	52	12
157	-21	13	63	-7
157	-32	11	6	-7
157	-33	7	-42	6
157	-37	2	-4	2
157	-31	-22	-6	2
157	-27	-65	-19	-2
158	-24	-59	1	-4
158	53	-12	-10	0
158	96	13	3	3
158	49	45	6	2
157	-1	61	31	-2
158	-94	61	60	5
157	-65	57	62	7
158	24	46	15	0
157	-11	105	-8	1
158	0	155	17	0
157	-15	60	8	2
157	-44	17	-4	4
158	33	58	-7	4
158	10	77	5	2
157	-33	34	9	-9
158	7	-45	4	-7
158	26	-26	0	0
158	-28	-10	0	-6
158	-58	-15	-4	-10
158	73	-6	-9	-13
158	79	-7	-2	0
158	-33	-19	12	9
157	-4	-29	36	5
158	-13	-32	25	0
157	16	-21	5	3
157	29	-7	5	11
157	63	17	16	9
157	106	54	23	-2
158	22	76	19	2
157	-25	66	12	6
158	-49	37	-16	-4
158	30	33	-22	-4
157	94	26	-13	3
157	52	4	-6	5
158	4	24	8	12
158	38	28	4	7
158	1	1	2	7
158	-162	8	26	9
158	-143	39	33	5
157	-5	57	22	2
157	97	0	-10	-1
157	71	-20	-38	-2
157	7	-7	-28	-5
157	-14	-18	-5	-4
157	18	15	7	-7
158	49	18	27	-4
158	49	3	28	2
157	84	-16	6	0
158	85	-8	28	4
158	-21	18	38	-1
158	-157	35	5	0
158	-166	50	2	3
158	-195	21	22	2
157	-151	14	19	4
158	55	33	-8	5
158	161	34	-1	-2
158	188	30	8	-4
158	190	26	21	-5
157	47	24	38	-6
157	-37	35	3	0
158	-20	36	-28	11
158	-38	26	1	12
157	-40	24	14	23
158	-126	22	18	27
157	-172	10	53	22
157	-94	5	34	13
158	-27	7	-49	-3
158	58	17	-92	-5
158	127	18	-21	-16
157	184	19	-5	-14
158	183	26	-12	-8
157	106	24	2	-6
158	30	25	2	5
157	8	8	35	2
158	-7	3	21	6
157	-19	4	22	-2
157	60	19	39	-2
158	13	30	47	-9
158	-68	-20	16	-13
158	-97	-56	-31	-7
157	-157	-55	-6	-6
158	-134	-27	22	-2
158	18	28	13	-2
158	149	52	2	-1
157	128	72	-3	-5
158	86	118	-1	-2
158	16	99	7	9
157	-34	55	8	16
157	-45	28	24	20
157	-22	13	28	15
158	-16	39	12	2
158	-30	19	-10	-2
157	-11	7	-1	2
158	-18	5	24	-1
158	-3	-1	2	-3
158	-5	5	-13	0
157	-4	-3	-12	3
158	0	8	4	3
157	18	15	11	0
158	90	19	6	-2
158	121	21	10	-10
157	40	29	11	-5
158	-29	26	13	1
157	-67	13	11	2
157	-172	9	9	2
158	-140	2	3	2
157	2	-6	-2	6
158	8	-2	-5	4
157	-23	14	3	9
158	-45	13	20	8
157	-87	9	30	0
157	-24	8	29	-9
158	-5	-1	1	-6
157	58	4	-7	-2
157	204	56	19	-5
157	244	86	12	-1
158	213	9	-23	8
157	67	-25	-6	10
157	-51	-18	8	6
158	-6	-25	-9	11
157	27	29	-2	10
159	-4	43	3	4
157	6	-14	15	-1
157	-52	-20	25	-5
158	-64	54	23	0
157	-7	141	51	-1
158	-61	128	89	3
157	-48	38	61	10
158	32	39	-16	16
157	21	49	-45	10
158	22	24	-58	-10
157	-20	-1	-44	-6
157	-25	-27	-3	0
157	-11	-13	13	-6
158	-31	4	24	-16
158	52	30	23	-5
158	150	14	22	0
158	157	-4	18	6
157	38	-16	19	13
157	6	-39	16	-4
158	-57	-52	-2	-3
157	-192	-38	-16	4
158	-133	5	-9	7
158	26	32	-1	3
157	84	75	-6	-1
158	74	143	2	0
158	-3	122	2	2
158	-231	4	14	12
158	-316	34	21	8
157	-202	62	-11	-7
158	27	7	-7	-9
157	203	-3	19	-5
158	218	-5	13	-4
158	234	14	19	2
158	262	5	21	2
158	188	-6	15	8
158	-21	-8	-11	11
157	-71	-14	-27	1
158	-2	-7	0	1
158	-24	-8	5	-1
158	5	-11	22	-5
157	-16	11	21	-7
157	-56	60	18	-2
158	-43	37	31	4
158	32	-36	27	0
158	72	-11	13	2
158	9	19	-4	-1
157	-30	41	6	3
158	-95	101	13	8
157	-100	83	17	7
157	-64	24	20	10
157	-28	-4	16	12
158	-94	-18	4	9
157	-146	-40	-19	-1
157	-79	-32	-12	-9
157	4	-26	6	0
158	40	82	12	-2
158	106	124	7	-2
157	180	0	2	0
158	122	-14	1	-8
157	64	13	-3	-11
158	7	19	-1	-4
158	17	1	-2	1
157	-8	-33	-2	4
158	-12	-8	1	9
157	8	26	9	12
157	-10	31	10	14
158	18	21	28	11
157	-16	31	35	-1
158	-20	46	15	-13
158	-98	38	20	-15
158	-105	27	6	-12
158	36	44	20	-2
157	42	51	100	0
158	63	28	97	2
158	97	-2	-73	7
157	104	9	-171	15
157	95	13	-40	7
157	29	-4	0	4
157	-114	-9	-17	10
157	-186	-19	23	-1
158	-74	-24	-7	-1
158	3	-18	8	-3
158	71	14	10	-1
157	45	52	12	1
157	67	70	23	2
158	60	59	13	0
158	-12	42	25	0
158	17	19	21	3
157	40	-14	6	1
157	68	-15	-29	3
158	33	27	-12	1
158	-13	52	6	9
157	-29	34	19	8
157	-28	82	46	4
157	-17	98	42	2
157	23	24	25	5
157	-19	11	6	7
158	-48	12	12	1
158	-17	1	10	-2
158	-98	-14	15	-2
157	-83	-20	19	-5
158	14	-16	15	-6
158	60	-20	13	4
157	16	-1	13	3
157	61	25	31	10
157	107	56	29	7
158	45	4	1	-3
158	53	-5	-32	-11
158	17	41	-24	-17
158	-5	23	-11	-9
158	-5	29	-15	-5
158	-20	11	3	2
158	8	27	-3	9
158	12	44	-6	16
158	-16	41	-6	14
158	-71	28	-3	7
157	-125	7	8	1
158	-103	5	10	10
158	-47	-6	17	18
158	21	-1	10	3
157	107	9	-7	-12
158	192	16	-20	-16
157	208	13	-7	-8
158	55	26	9	1
158	-55	24	9	3
158	-143	16	22	0
158	-135	10	38	-5
158	-32	6	59	0
158	40	30	36	2
158	116	29	1	-1
157	79	23	-1	-5
158	71	-5	33	-6
158	127	-10	39	-2
157	17	30	13	-1
158	-30	57	52	7
158	-16	58	49	10
157	-114	13	-26	17
157	-117	-8	-31	18
158	-96	22	22	2
157	-68	16	-19	1
158	-33	13	-39	2
157	20	23	-33	4
158	18	12	-38	9
158	10	9	2	1
157	-42	-14	1	-6
158	-77	-42	4	-10
158	99	-47	-9	-3
157	88	-16	9	3
157	49	-1	31	6
157	105	17	14	2
158	84	69	16	-1
157	44	98	8	-7
157	-12	52	10	-4
157	-12	39	16	7
157	19	122	29	4
157	36	159	-1	5
157	-19	87	-13	10
158	-70	-12	15	0
157	-101	-9	24	-3
158	-15	-4	17	-1
158	29	-21	10	-6
157	33	28	19	-4
157	172	25	11	-1
158	186	-13	-6	8
158	101	19	-3	6
158	15	11	24	6
158	-48	-8	8	6
158	-183	0	0	-6
158	-212	-13	3	-18
158	-154	-10	5	-5
157	-73	-18	8	5
158	-10	-7	-2	2
158	0	17	2	4
157	27	42	21	0
158	80	42	34	9
157	156	18	8	3
157	64	21	-7	-7
157	15	25	-4	-3
158	-27	17	-5	-2
159	-47	14	0	2
157	-47	3	-11	6
158	-99	-5	-2	8
158	-47	-2	17	7
157	-46	4	33	0
158	38	14	10	-9
158	130	3	-24	-7
158	151	10	-1	-4
157	195	19	27	1
157	104	11	3	2
157	-7	17	-34	6
158	-33	41	-20	7
157	-32	48	17	8
157	-14	14	32	8
157	-9	0	58	-7
157	-8	8	18	-1
158	-23	19	-78	9
157	-64	29	-32	2
158	-79	18	45	-1
158	-87	-2	48	7
158	-108	-19	69	8
158	-50	12	65	5
158	51	28	13	-4
158	134	17	-37	-8
158	139	47	-42	-5
157	97	126	-20	-1
157	134	93	-2	4
157	101	0	3	2
158	-12	9	2	4
158	-1	7	15	9
158	63	19	8	8
157	72	18	8	2
158	32	8	12	0
158	-87	10	9	-1
158	-178	-1	16	-3
158	-119	5	26	-2
158	-99	3	23	4
158	-120	11	24	1
158	-48	11	25	0
157	-39	4	6	1
157	10	5	1	4
157	19	25	0	13
157	-18	48	-1	14
158	-49	36	-2	15
157	-91	10	-10	8
158	2	-17	-4	-3
158	-15	-19	4	-6
157	61	26	15	-4
158	149	-6	10	-10
157	166	-8	-17	-8
158	162	46	-5	-2
157	68	62	28	-7
158	15	103	29	-3
157	-66	64	28	-2
158	-83	43	9	-7
158	-46	23	1	-1
158	-12	2	0	3
157	9	17	-3	1
159	75	-1	9	1
157	136	21	20	2
158	135	27	43	4
157	93	6	21	10
157	17	-1	-20	13
157	26	24	-12	5
157	-4	44	7	1
158	-77	19	24	6
157	-39	-21	35	6
158	-27	-50	25	2
158	12	-54	-18	-5
158	16	-35	-43	-2
157	-57	1	-35	1
158	-19	27	-18	-4
158	61	58	5	0
158	63	71	10	-2
158	0	72	32	-2
157	-91	3	60	-1
158	-169	-25	37	-3
157	-63	68	-28	2
158	35	56	-32	4
158	-35	36	22	-4
158	-49	95	6	-2
158	-16	81	11	-1
158	84	9	16	2
157	136	-8	9	4
157	55	-14	20	6
158	-3	-8	6	11
157	-98	1	12	11
157	-194	-7	-3	4
157	-96	4	-11	-1
158	-2	-3	-15	8
158	-40	-4	-10	13
158	5	2	6	6
157	42	4	10	1
158	105	0	19	-7
159	125	-6	21	-2
158	78	3	27	0
157	95	15	27	-4
157	100	33	34	-6
157	84	32	32	-6
157	2	9	-8	9
158	-65	25	-30	7
157	-151	47	-1	6
157	-147	90	-6	10
158	-36	74	-16	12
157	8	12	6	8
158	128	23	9	0
158	225	4	27	-5
159	132	-10	27	-6
157	57	-2	22	-10
157	56	14	9	-3
157	-58	36	-9	2
157	-105	37	-1	2
158	-4	35	6	1
158	-20	2	10	-6
158	-63	11	4	-2
158	15	19	12	-6
158	28	9	12	-6
158	-5	12	-14	6
158	-19	14	-10	6
158	-5	22	16	2
157	38	14	8	6
158	35	19	8	8
158	0	25	-1	3
159	-48	23	-5	4
158	-51	18	12	9
157	-44	21	-3	9
158	-48	12	9	1
157	-53	6	19	-9
158	-22	-6	19	-6
158	-13	-12	2	9
158	-5	5	-6	0
158	19	3	8	-3
157	2	11	20	8
157	-36	19	19	-5
158	-56	-18	-31	0
157	-20	-50	-17	-4
158	-20	-16	47	-5
158	24	10	27	2
157	60	41	-53	-4
158	71	111	-37	-1
158	125	166	22	-1
157	117	113	17	9
157	77	24	21	9
158	151	26	24	10
158	221	14	22	13
158	158	25	25	8
157	54	51	22	8
157	-158	37	18	7
158	-209	22	12	9
157	-109	28	22	-4
158	-211	13	17	-10
158	-205	-45	10	0
158	-105	-81	13	-2
158	-12	-18	-4	-4
158	160	23	-10	0
158	210	-41	8	1
157	186	-28	21	-4
157	136	-5	3	1
157	-36	-23	-8	4
158	-118	-30	29	0
157	-72	-37	21	1
157	-91	-33	6	-2
158	-86	-28	27	-9
158	-45	-2	15	-5
158	-8	60	8	2
158	68	121	13	0
157	68	94	12	-1
158	57	130	-5	-6
158	55	168	-12	-5
157	17	106	-19	4
158	-38	76	-3	9
158	-70	45	16	9
158	-51	37	14	13
158	-45	0	9	6
157	-38	-4	-9	-2
157	-41	-14	6	4
158	-44	-18	4	7
157	47	-4	-3	4
158	163	-30	4	3
158	188	-17	-7	-4
158	234	-22	-15	-1
157	154	-18	-11	-3
157	4	-36	13	-4
158	-82	-63	17	0
158	-186	-27	4	-4
157	-129	26	7	-6
157	11	62	13	-5
158	38	85	21	-5
157	40	130	17	-5
158	28	88	17	6
157	-47	0	16	4
158	-22	-11	10	11
158	-12	-5	6	10
158	-43	26	4	2
158	-14	9	30	0
157	24	-19	46	-3
158	146	-16	-4	10
158	113	-7	-55	12
159	-37	0	5	3
158	-144	-20	39	-1
158	-202	-4	-10	-1
157	-63	43	5	-4
157	89	79	5	-6
157	149	63	-13	0
157	106	42	-11	5
157	43	20	13	-1
157	12	30	9	-1
158	-31	46	-26	11
158	-32	26	1	8
157	-27	13	11	4
158	-8	8	12	0
157	-14	8	20	0
157	-12	-4	14	0
158	-5	-4	14	-2
158	-10	-8	29	0
158	-6	-15	62	-6
158	-53	-3	59	-7
157	-118	-2	16	2
157	-111	-10	-37	11
158	-47	15	-17	14
158	-25	60	21	9
158	-8	84	-17	7
157	-28	86	-22	15
157	58	51	-29	14
158	242	12	-12	7
157	325	25	12	10
157	260	19	-19	4
158	124	7	-32	-15
157	95	8	-19	-18
158	-44	4	15	-6
157	-245	1	34	-8
158	-224	-8	38	-4
157	-17	23	24	-5
157	65	41	21	-8
158	60	17	16	-1
158	74	8	13	-5
158	-16	19	27	-4
157	-38	14	22	-5
157	-91	27	34	-7
158	-113	36	2	8
157	-55	23	-26	14
158	-71	-3	15	5
158	-12	-19	17	4
158	22	-26	17	4
158	-14	-53	23	3
158	1	-24	4	6
158	66	-1	10	11
158	137	-2	15	8
157	127	13	10	6
157	44	50	-12	-7
158	-59	127	5	-11
157	-35	144	61	-2
158	5	71	38	-4
158	-42	46	-23	8
157	-105	37	-35	4
157	-180	19	-5	4
158	-109	32	-6	9
157	13	10	6	4
157	39	0	31	5
158	122	-4	16	-2
157	191	-13	13	-6
158	247	6	2	-7
157	252	7	-7	0
157	165	1	-5	4
158	-5	6	7	-1
158	-73	21	33	3
158	16	8	36	2
158	-100	-10	0	-3
157	-169	4	-44	2
158	-71	23	-30	2
158	-53	9	-1	13
157	-92	-20	33	2
158	-83	-13	68	-7
158	8	7	-1	5
158	67	-13	-43	-1
158	65	-36	0	-2
158	17	-11	19	-8
157	-29	28	45	-5
158	-9	99	7	2
158	-44	108	-63	4
158	-33	61	-20	4
157	-8	79	37	0
158	-57	64	36	6
157	-39	56	21	4
157	-2	39	-1	2
158	66	8	10	0
158	93	2	13	2
157	103	-7	-1	4
158	62	9	3	0
158	13	38	-6	6
157	2	30	5	9
158	-41	12	14	13
158	-2	10	20	9
158	9	-17	10	0
158	-13	0	-8	-16
158	-38	31	-17	-23
157	-69	6	-23	-3
157	-40	-31	-6	4
157	-13	-24	1	3
158	7	-7	-1	3
157	34	-11	-5	-1
158	74	2	-11	2
158	66	10	-3	1
158	13	14	16	13
158	5	27	55	7
157	-30	49	60	-3
157	-163	71	16	5
157	-131	72	22	10
158	17	43	74	12
157	97	19	31	16
157	171	11	-24	16
157	151	1	15	-13
158	202	-7	21	-21
157	247	0	-35	-3
157	115	10	-28	-5
158	-33	19	5	-10
158	-81	3	-15	-1
158	-186	-39	-32	3
158	-207	-33	-13	7
157	-78	9	9	4
157	-105	44	15	6
157	-41	54	20	6
157	17	87	25	3
158	77	94	33	2
158	89	35	29	0
157	1	25	12	2
157	21	26	2	2
157	26	0	1	3
158	-7	6	10	0
157	-80	12	9	2
158	-37	10	-3	6
158	25	13	-5	10
157	64	12	8	0
157	99	18	8	-9
158	39	16	-9	-2
158	1	11	-17	3
157	-67	-2	0	0
158	-94	8	40	-5
158	-67	9	57	-2
158	-55	-1	10	-4
158	-46	15	-51	9
158	11	11	-2	7
158	56	-8	31	-1
157	42	-8	15	5
158	42	-1	25	-7
158	87	14	0	-9
158	92	21	14	-5
158	-62	26	15	-5
158	-100	44	-7	0
157	15	55	-20	7
158	53	59	-11	15
157	106	25	13	15
157	192	-13	13	14
157	175	-16	13	-1
158	-23	-34	10	-4
157	-68	-15	11	-5
158	38	99	-25	-4
158	-11	161	-18	0
158	-113	106	19	-13
157	-131	80	5	-5
158	-81	51	-4	5
157	-49	-18	16	0
157	-62	-20	43	1
157	-54	-25	26	0
158	-19	-11	-7	0
157	53	10	-1	-7
158	91	17	29	-7
158	80	19	19	2
157	42	38	33	-1
157	9	61	27	3
157	-18	6	2	9
158	-70	-39	5	5
157	-46	-54	6	3
157	-9	-21	20	8
158	11	25	2	9
158	64	54	-12	3
158	83	79	-5	-4
157	72	-1	16	-2
158	43	-30	21	0
157	14	12	9	5
157	23	13	4	9
157	-6	6	-12	6
158	-30	-6	-19	6
158	-1	11	13	0
158	33	18	19	4
158	26	21	-18	-1
158	40	9	-22	2
158	78	8	1	0
157	-88	25	4	-6
158	-218	32	-1	1
157	-167	23	-7	3
157	-219	0	1	2
157	-130	-11	14	7
158	131	-10	20	6
157	263	-4	25	-2
158	242	-4	45	-7
158	96	22	39	-9
157	19	87	10	-6
158	49	109	4	-6
158	61	42	9	0
158	18	30	17	0
157	-5	33	5	1
158	-14	15	-9	11
158	-24	28	-3	5
158	-31	35	31	-2
157	-48	44	47	4
158	-44	22	-19	8
158	-27	8	-61	14
158	-9	6	-2	4
158	-16	3	2	-2
157	-20	8	-30	3
157	-30	10	-7	7
157	-3	10	-7	7
157	42	11	2	7
157	42	5	33	-1
158	49	1	58	-6
157	30	7	36	-3
158	36	13	-3	7
157	19	21	9	11
157	-75	12	11	7
158	-32	7	-15	-11
157	37	8	-33	-24
157	-7	4	2	-9
159	-16	3	-14	2
158	13	10	-27	4
158	31	29	19	4
157	28	42	4	5
158	-8	32	33	-1
157	8	25	48	0
157	17	38	26	7
157	-20	34	25	-1
158	37	18	24	-7
157	93	12	3	-2
157	30	42	-24	-2
157	-82	43	10	-10
157	-158	-6	-13	7
158	-72	13	-12	10
158	10	17	28	6
158	86	8	13	8
157	161	16	29	2
157	107	9	17	4
157	-22	19	8	1
158	-164	18	6	10
158	-104	19	-9	13
158	-55	9	-7	5
157	-4	3	-3	-2
158	35	0	-1	-5
158	-20	-17	7	1
157	120	-1	20	-4
158	127	-9	27	-8
157	21	-34	30	-2
157	22	-23	23	11
157	-11	-8	30	8
157	23	22	26	4
157	41	47	8	-2
158	-13	54	12	-4
157	12	32	3	8
157	0	127	-31	4
158	30	176	-35	7
158	81	49	-14	9
157	-19	30	10	4
158	-68	49	40	-4
157	-27	70	-10	-7
157	64	65	-67	-2
158	77	42	-11	-5
158	-43	-7	17	-4
156	-19	-28	31	-7
158	42	-7	50	0
157	24	-14	33	11
157	-66	-33	35	4
157	-170	-80	18	1
158	-162	-35	9	9
159	-65	-15	21	10
158	74	3	16	6
158	107	28	-3	8
157	124	28	-6	4
158	99	28	10	-1
157	-9	12	2	-4
157	20	33	4	-4
158	53	29	11	1
158	2	46	8	0
157	-16	53	13	-4
158	-12	42	25	-2
158	-37	13	28	-1
158	1	-6	-16	-5
158	10	9	-32	-9
158	5	9	4	-6
157	2	20	33	0
157	-44	13	36	-1
157	-45	13	-11	5
158	-58	5	-31	7
157	-41	2	13	15
158	-10	7	36	16
158	9	1	43	12
158	36	2	0	0
157	58	15	-63	-9
157	62	45	-31	-7
158	35	33	-5	-12
157	5	-17	-18	-1
157	0	-26	-1	3
158	20	-6	9	2
158	14	22	10	-3
158	5	40	1	-7
157	-11	57	-9	-2
158	-12	102	6	4
158	15	65	1	13
158	-27	0	7	7
158	-80	4	19	7
157	-54	-9	47	-1
157	-35	4	44	3
157	-14	8	-11	6
157	49	12	-13	0
157	97	14	10	1
158	55	-11	6	-1
158	8	-6	6	0
158	21	2	10	-3
157	24	33	28	-1
158	42	50	37	-6
157	61	53	10	2
158	183	33	-16	4
159	146	37	-10	2
158	-19	52	24	6
157	-87	29	71	7
157	-75	41	51	7
158	12	47	22	1
157	-21	24	47	0
158	-27	-8	-6	-1
158	-95	-2	-55	10
156	-115	8	-18	11
158	41	9	14	6
157	-35	2	9	10
157	-94	-18	23	6
157	92	-11	18	3
158	124	-3	6	5
158	95	-3	10	-1
158	88	16	-10	-4
158	32	76	-31	0
159	-34	80	-19	-17
158	-140	24	-8	-8
158	-120	43	-7	-4
158	-83	43	10	-8
157	-20	-2	25	5
157	24	-19	37	-1
157	38	-18	15	6
158	78	-6	-28	7
157	45	-5	-14	2
158	34	16	23	0
158	-16	24	4	-4
157	-63	21	-6	-2
157	-63	30	8	-4
157	-22	25	21	-6
158	13	31	35	-2
158	55	26	25	0
158	87	24	-18	8
158	65	23	-54	4
157	44	24	-14	-13
157	-16	18	5	4
158	-57	17	3	4
157	-46	17	25	3
157	3	1	31	7
157	-27	5	43	-2
158	-68	9	4	-2
157	40	19	-22	2
157	266	4	13	4
158	286	-21	25	6
157	75	-39	4	14
157	-101	-47	-9	9
157	-261	-32	-5	9
158	-283	-3	17	7
158	-192	50	11	0
158	29	79	-2	0
157	139	79	3	0
157	192	48	12	4
157	294	24	18	-3
158	138	96	13	0
157	55	110	13	-4
158	-54	32	10	-7
157	-177	52	5	1
158	-98	70	-6	0
157	-61	30	-1	0
158	-45	26	5	-4
157	10	16	9	-1
157	36	29	13	-2
158	25	4	15	-1
157	-5	5	22	3
158	-12	-9	51	4
158	-7	-54	57	7
157	-59	-24	-9	10
157	-88	-27	-47	19
158	-82	-21	-3	11
157	-49	40	18	3
157	0	52	-2	-6
157	71	15	-53	-9
158	125	29	-59	-5
158	111	46	11	-8
158	117	32	21	-5
158	94	20	6	-5
157	26	18	25	-3
158	5	11	35	6
157	39	2	23	7
157	43	2	34	7
157	16	-1	49	3
158	-30	-2	23	1
157	-157	-2	-4	7
157	-232	10	-11	2
158	-113	14	21	2
157	18	17	39	4
157	8	19	8	2
158	34	32	-22	0
157	55	30	-10	2
158	20	-9	20	12
158	23	-6	42	13
158	65	38	32	-4
157	138	41	-24	-10
158	203	-5	-33	-4
157	165	-10	-7	-8
157	-23	27	-7	7
157	-144	35	-6	15
157	-206	14	2	9
157	-235	13	12	6
157	-89	18	8	0
157	80	25	5	4
158	161	27	16	-4
157	197	17	8	-8
158	119	4	4	-6
158	-18	-27	11	0
158	-25	-9	8	3
157	56	36	15	5
157	50	44	20	0
157	24	54	10	0
158	-1	82	-20	4
158	-17	62	-38	2
157	12	25	-15	7
158	-25	44	9	4
158	-56	31	13	2
158	-52	23	32	10
158	-64	9	46	11
157	-96	0	45	8
158	-65	2	10	6
157	57	-10	-39	4
158	79	14	8	-18
158	22	3	39	-25
158	-37	-1	0	-17
158	-139	14	36	-25
158	-57	22	53	-11
158	50	18	-47	5
158	-6	35	-93	11
157	-12	52	-8	6
158	24	25	4	1
158	40	14	-9	2
158	95	58	0	1
158	131	36	-19	8
158	89	-20	8	8
158	23	-4	12	4
158	-25	-6	24	-4
158	-18	47	30	-2
158	12	56	27	6
158	10	16	37	5
157	10	14	28	-1
158	3	6	13	-1
158	-29	9	-8	4
157	-56	-43	-19	6
159	-32	-34	-17	13
158	-3	-3	13	9
158	-31	-36	41	6
157	-69	-4	37	2
158	-31	25	17	-7
157	44	91	34	-9
158	17	125	43	-11
157	66	39	15	-5
158	53	8	-9	0
157	3	32	-12	-1
158	25	27	-3	1
157	-31	-12	-2	1
157	19	-39	21	2
158	46	-25	18	9
158	62	48	19	9
157	44	62	21	4
157	-14	25	8	6
157	-17	41	13	4
158	-38	46	4	13
158	-18	25	-10	8
157	-22	2	-24	6
158	-3	-15	-11	7
157	55	-40	-27	-1
158	117	-32	-31	1
157	88	-4	-8	4
158	-10	19	18	-2
157	-73	34	63	-8
158	-157	58	45	-8
157	-142	64	22	0
157	-44	8	1	4
157	25	-6	4	-1
158	55	-6	15	-5
158	85	9	10	-9
158	96	31	18	-3
157	120	47	2	8
158	68	75	-24	8
157	-30	55	-26	7
157	-103	14	1	7
157	-144	-10	5	0
157	-77	-8	8	-9
158	-11	-9	42	-6
157	112	20	73	-3
157	194	73	22	0
157	166	62	-55	7
157	139	26	-31	-3
157	8	36	-25	-11
158	-146	14	-34	-2
158	-112	-4	-8	0
157	39	-1	0	-1
158	95	5	12	6
158	67	11	27	8
157	7	9	52	9
158	-109	5	35	2
157	-140	7	1	-5
158	-92	15	-3	-11
157	-140	9	0	-14
158	-89	14	-3	-1
158	28	21	-5	7
158	23	24	8	6
157	82	19	12	6
158	81	20	15	7
157	65	19	17	6
158	85	18	22	12
158	48	15	13	7
158	66	6	9	-2
157	86	14	4	2
158	45	17	3	3
158	-56	18	6	2
157	-146	15	3	4
157	-185	15	17	6
158	-127	16	25	2
157	-5	7	37	0
158	64	-9	38	-1
157	36	-25	16	9
157	2	-26	9	9
157	66	-16	-11	4
158	111	5	-52	9
157	25	41	-6	1
157	-63	65	-1	-4
157	-49	86	-38	-10
158	-23	105	-2	0
157	36	67	22	8
158	103	37	42	5
157	133	18	-7	13
157	149	17	23	5
158	89	13	129	0
157	2	16	98	3
157	-42	46	29	-9
158	-39	38	-25	-4
157	-38	-14	0	5
157	-37	-81	28	-6
157	-38	-50	-77	2
157	-27	13	-80	-6
158	-22	19	-10	-4
157	-31	9	-17	4
158	-7	31	6	6
157	-3	48	15	13
157	2	8	0	1
158	-5	26	0	-1
158	-11	46	3	-8
158	-6	23	21	-12
157	-35	42	15	-9
158	-46	45	5	-11
158	82	33	-6	10
158	158	30	-32	11
157	58	26	-32	4
158	-32	21	-18	2
157	-142	3	-2	-7
158	-163	7	13	-1
158	-105	13	4	4
158	-75	2	4	-1
157	-25	7	9	-2
157	49	16	11	0
157	134	8	31	-3
157	219	-8	44	5
158	226	-18	42	18
157	174	-3	39	17
158	44	34	25	11
158	-152	48	17	-6
158	-272	82	1	-4
157	-280	76	-7	7
158	-166	5	1	-6
158	-4	8	2	-6
158	192	-6	7	-4
157	243	10	4	1
157	251	17	8	6
158	243	-26	22	7
157	84	23	57	10
157	1	17	31	11
157	-23	14	-31	10
158	-5	15	18	1
158	-34	2	36	-4
158	-26	15	-7	1
158	-44	10	-12	2
158	-63	17	-9	-1
157	-39	10	8	1
157	-44	17	23	0
158	-15	13	22	-2
158	-8	-8	-6	7
