File Name: not saved
Channel 3: 'EKG', 27450 values, raw ADC, no filters.
Channel 4: 'FCR_EMG', 27450 values, raw ADC, no filters.
Channel 5: 'FCU_EMG', 27450 values, raw ADC, no filters.
Channel 7: 'ECU_EMG', 27450 values, raw ADC, no filters.
Channel 8: 'ECR_EMG', 27450 values, raw ADC, no filters.

158	-39	9	8	2
158	-54	11	9	2
158	-9	19	-1	2
157	9	21	2	3
158	31	18	8	0
158	54	15	8	6
157	73	19	10	7
158	77	21	14	10
157	45	16	17	8
158	26	5	21	5
158	-3	2	15	7
158	-27	-6	23	4
158	-16	-2	25	5
158	-16	22	14	-1
158	-6	39	-4	-3
158	-4	33	-36	2
157	-5	17	-22	0
157	12	24	-5	-6
157	27	27	-16	-5
157	35	23	-11	-2
157	16	27	-9	-4
158	-15	26	-3	-6
158	-28	23	6	-5
157	-20	13	22	-8
157	-2	6	52	-12
157	5	8	72	-1
157	5	11	58	10
158	19	14	20	5
158	9	22	-14	-3
158	-11	27	-24	-3
158	-17	21	3	-3
158	1	17	6	12
157	18	17	8	13
158	-2	20	10	2
158	-15	21	-9	0
157	-10	19	-5	-2
157	10	18	0	4
158	16	17	18	8
158	27	15	17	10
157	40	21	13	7
158	41	20	11	6
158	43	22	1	6
157	29	21	1	6
158	10	18	0	6
158	-8	18	3	8
157	-11	16	0	8
157	-7	19	-3	5
158	1	22	4	6
158	-5	19	13	2
157	-40	17	17	-3
158	-64	17	19	-6
158	-82	15	17	-2
158	-64	19	15	1
157	-14	19	23	-4
157	10	19	16	-2
157	61	21	2	2
157	97	22	1	-2
157	92	18	6	0
157	78	13	19	2
158	48	20	16	3
158	11	17	-5	5
157	-16	14	-27	11
157	5	11	-13	6
158	26	18	3	-6
158	25	24	7	1
158	16	24	19	5
158	5	26	17	11
157	12	14	32	15
157	12	15	32	4
158	15	22	22	1
158	20	17	7	-5
158	1	18	-12	-16
158	-13	17	-7	-19
158	-20	17	-5	-13
157	-28	19	-4	-3
157	-44	15	6	0
158	-60	13	8	5
158	-37	12	10	3
157	-6	6	14	4
158	11	8	17	6
157	13	14	7	2
157	4	14	-18	4
157	3	17	-4	-2
157	4	17	8	0
158	1	19	-14	2
158	-6	25	6	2
157	-10	26	13	3
157	-4	32	3	1
157	1	33	7	-6
158	4	24	10	-4
158	15	20	30	2
157	32	19	21	1
157	43	14	-5	1
158	23	17	-29	0
158	0	14	-7	-5
158	-8	12	8	-4
158	-12	18	-1	-2
158	-23	17	5	0
157	-23	22	0	0
158	1	26	8	2
157	12	17	9	10
159	14	15	14	9
158	17	17	7	4
157	16	18	10	1
158	-18	15	19	3
158	-47	16	9	-1
158	-8	19	10	-3
158	15	19	2	-6
158	31	13	6	-4
158	63	7	7	1
157	71	12	9	-6
158	75	14	15	-4
157	51	15	12	0
158	36	22	3	-1
158	12	14	23	-1
157	-1	13	31	2
158	3	14	13	4
157	-4	18	15	9
158	-3	20	12	2
157	-14	15	21	-1
158	-20	17	20	6
157	-18	25	-1	3
157	-14	24	10	-2
158	-12	22	26	-4
157	-3	25	20	4
157	-3	21	6	3
157	-18	21	-8	3
159	-12	23	-19	3
157	-5	16	-19	7
158	-2	10	-6	10
158	-1	2	8	8
157	13	5	14	7
158	21	18	16	0
157	-1	45	4	2
157	-61	52	-6	1
157	-91	33	-8	-3
157	-39	15	-1	-2
157	12	19	5	2
157	41	21	2	5
157	67	15	6	-2
157	90	19	5	-3
158	100	15	2	2
157	85	10	4	3
158	51	10	5	7
158	17	16	6	11
158	-7	13	13	5
158	-28	14	25	4
157	-29	17	32	-1
157	-36	15	25	-1
157	-23	15	13	3
158	-17	9	1	8
158	-17	10	4	7
158	1	13	-11	7
158	13	15	-23	-2
158	23	22	12	-7
158	24	29	10	-5
158	15	22	8	0
157	24	23	10	7
158	25	28	15	1
158	-11	32	27	6
157	-34	34	6	-5
158	-17	28	-20	-4
157	-3	26	-20	2
157	-5	25	9	-5
158	-2	24	0	-4
158	3	22	14	-8
158	3	22	22	-1
158	-24	21	17	4
158	-67	18	27	5
157	-38	13	17	9
157	0	10	8	4
157	16	11	-14	2
158	56	5	6	4
158	66	-2	16	4
158	68	1	4	4
158	38	1	9	2
158	-5	11	0	0
157	-41	17	-1	1
157	-70	17	5	2
157	-29	22	9	8
157	13	24	1	2
158	24	21	3	-1
157	42	21	-6	3
157	44	19	-8	4
157	52	19	-1	-3
158	49	19	1	-4
158	39	19	13	0
158	27	24	19	-1
157	7	25	25	1
157	-5	22	34	4
158	-18	17	43	1
157	-16	17	35	-7
158	-7	16	17	-15
157	-5	14	6	-13
158	-6	15	-3	-5
157	3	17	1	1
157	9	19	2	6
158	5	22	3	2
159	-3	27	6	2
158	-13	26	10	0
157	-13	21	15	2
157	-8	16	7	15
158	-4	15	12	13
157	-11	18	23	7
157	-15	19	-13	4
158	-5	19	-58	6
157	5	15	-31	-1
157	25	19	-11	-4
158	30	20	1	2
157	19	18	20	0
157	9	18	13	5
157	-2	15	17	2
157	-6	15	19	2
157	-3	15	14	1
158	-3	10	10	3
158	-1	15	6	-2
158	1	15	12	-12
157	20	18	8	-11
157	18	25	19	0
158	-7	19	28	6
158	5	18	25	2
158	27	17	5	10
158	19	14	-23	14
157	-34	15	-14	9
157	-41	14	8	7
157	-12	17	-5	4
158	-7	16	2	-4
158	15	14	7	-1
158	37	16	8	-8
158	64	16	4	-9
157	61	14	6	3
157	53	16	19	9
158	44	21	9	9
158	13	24	12	0
158	5	30	9	0
158	-9	28	8	-4
157	-25	22	1	3
158	-30	21	10	8
158	-37	26	24	-6
158	-47	25	14	-9
157	-68	22	16	-9
158	-40	22	13	-9
157	-4	23	15	-4
157	11	19	15	4
158	47	8	9	6
157	64	-1	-6	4
158	59	1	-10	4
157	44	20	4	1
158	36	36	0	2
157	42	28	-4	2
158	22	19	13	0
158	11	15	32	-2
158	12	18	10	9
158	9	18	-5	18
158	9	15	22	16
158	-3	16	-7	4
157	-9	22	-22	-6
158	-5	22	9	-1
157	-11	16	18	0
157	-15	18	13	-3
157	-15	19	-5	-7
158	-14	15	1	0
157	-10	16	10	4
158	-9	17	7	7
157	-10	17	9	9
157	-8	18	18	7
158	-5	15	31	5
157	0	15	23	4
157	4	17	0	6
157	-1	19	-3	2
157	2	19	10	-5
157	4	19	6	-1
157	5	17	0	0
157	8	21	1	-7
157	1	19	5	2
157	-7	16	9	9
158	1	19	8	6
157	7	15	6	8
158	6	17	5	4
157	7	19	4	4
157	7	18	3	1
158	7	18	13	4
158	5	16	14	7
158	-3	17	14	-3
157	-16	18	21	-15
158	-19	17	22	-18
157	-37	14	15	-14
159	-52	13	-16	-1
158	-16	13	-23	1
157	16	13	-1	-4
158	25	15	-1	1
157	50	14	19	-2
158	53	22	27	-9
158	38	32	10	0
157	45	31	5	9
158	48	25	0	11
158	56	22	3	14
158	65	23	0	6
158	47	25	8	4
157	59	25	4	2
157	33	19	-2	-3
159	-14	19	-11	-9
157	-45	15	-16	-4
157	-73	15	6	2
158	-60	14	8	4
157	-51	11	14	10
158	-23	17	30	3
158	2	18	44	7
158	19	14	40	5
157	35	14	15	3
157	44	19	-8	2
158	46	21	6	9
158	21	19	8	-2
158	4	23	-30	0
157	-3	15	-24	9
158	-11	13	-3	2
158	-12	16	0	8
158	-9	7	-5	3
157	-5	9	-3	-12
158	-5	14	11	-26
158	-3	15	15	-14
158	-6	16	18	-1
158	-9	21	7	-2
158	-2	25	4	6
157	8	25	14	4
158	3	24	25	8
158	-18	31	25	7
158	-42	35	12	4
158	-30	25	16	-3
158	1	24	17	-1
158	8	23	8	6
157	23	19	6	4
157	39	18	7	3
158	50	18	7	3
157	37	17	6	5
157	15	14	3	4
157	21	17	-2	9
158	0	14	-1	11
157	-18	10	5	5
157	-10	13	14	7
157	-14	22	20	4
157	-1	21	15	2
158	14	7	11	2
157	20	2	6	-4
158	28	2	6	-3
158	14	-6	18	1
159	-28	0	22	1
157	-54	21	5	2
157	-20	37	-26	-1
158	-3	29	-42	7
158	16	22	-17	-1
157	34	25	-8	-6
158	44	26	-10	4
158	47	23	12	3
158	24	23	16	4
158	16	19	22	-13
157	-2	23	28	-22
158	23	22	35	-13
158	43	19	43	-8
158	8	22	19	-5
157	8	19	-6	-2
158	11	22	5	8
157	-11	21	12	6
158	-20	18	8	4
157	-9	21	6	7
157	-16	19	2	4
157	8	18	4	1
158	22	17	5	3
157	17	16	8	2
158	19	11	6	4
157	-11	6	15	2
157	-11	7	26	5
158	-8	13	27	4
157	-5	16	18	4
158	-6	19	-20	8
157	-14	19	-18	10
158	0	14	-5	8
158	12	15	-12	-2
157	11	26	6	-5
157	-2	25	4	0
158	10	21	4	1
157	19	22	1	-7
158	14	25	-6	-7
158	6	26	4	-3
158	-7	25	0	-5
158	2	19	13	0
157	11	19	19	-4
158	14	17	17	-1
158	11	13	18	4
158	0	14	18	-2
158	-5	13	22	4
157	-5	13	6	15
157	-5	14	1	9
158	-8	18	5	3
157	-3	19	5	6
157	2	18	8	2
158	12	17	8	2
158	11	24	11	1
158	5	27	8	2
157	9	23	6	5
158	11	17	2	3
157	12	19	0	0
157	18	20	-1	1
158	9	18	-10	-2
158	-3	19	-6	-4
157	4	22	10	3
158	1	19	22	5
158	-9	13	28	4
157	-19	15	23	3
157	-17	19	14	2
158	-18	18	12	1
158	-64	17	14	3
157	-72	10	15	0
158	-9	5	4	-3
157	22	9	4	-4
158	51	8	-1	-6
158	81	11	-1	-6
158	92	18	8	-4
158	93	18	15	-1
158	59	22	28	1
157	21	23	20	0
157	-47	29	-2	9
158	-95	34	-9	13
158	-67	31	15	3
158	-52	23	12	2
158	-25	22	-2	4
157	7	22	0	4
157	24	15	5	3
157	58	12	-11	-1
158	88	13	-35	2
157	96	16	-5	-4
158	92	18	1	-1
157	40	16	5	2
157	-8	13	10	3
158	-12	8	0	7
157	-13	8	9	1
158	0	18	2	-6
157	-5	19	6	-7
158	-6	19	-1	2
157	3	24	-10	2
157	-3	23	-1	-4
158	4	22	7	1
158	7	21	10	-3
158	9	19	21	-5
158	14	18	35	2
157	9	17	40	8
157	-2	13	40	4
157	0	9	25	10
158	-2	5	18	14
158	-16	5	15	4
158	-25	9	6	6
158	-31	18	2	3
158	-10	25	3	-2
158	0	30	10	-2
158	-12	27	3	9
157	-11	22	-8	8
158	-7	21	-12	-5
157	-13	18	-11	-9
158	-25	16	-6	-7
157	-41	15	-1	1
157	-30	19	1	2
157	-35	19	4	2
157	-63	19	2	7
157	-15	20	2	6
157	39	22	13	3
157	59	22	26	-1
157	98	24	30	-5
158	101	24	17	-3
158	90	22	17	-4
157	61	19	16	-6
158	34	19	2	-2
158	8	21	-11	6
157	-16	20	4	-1
158	-7	17	17	0
157	-8	19	5	9
157	-9	19	13	9
158	-8	21	13	7
157	-12	17	6	4
158	-13	16	4	6
158	-21	14	-3	2
158	-13	15	-6	1
158	-2	18	-7	-1
157	-7	15	6	-2
158	-11	18	8	-4
158	-12	23	13	-11
158	-12	17	29	-4
158	-8	18	36	5
157	-7	23	17	7
159	8	22	-19	6
158	22	18	-20	2
158	28	18	-3	0
157	36	17	2	-3
158	42	18	6	-2
158	33	17	5	-1
156	14	16	6	0
157	0	18	10	5
157	-8	16	20	4
157	-32	16	33	0
157	-64	18	19	-1
158	-54	17	-6	-6
158	-19	14	-18	0
157	1	17	-15	2
158	20	16	-6	0
157	24	15	-9	5
158	40	11	-2	4
157	64	12	17	-1
158	58	13	26	0
157	48	12	20	-1
157	31	16	17	-5
157	28	21	18	0
158	35	27	12	3
157	40	29	15	4
157	27	24	11	13
157	25	18	8	12
157	20	19	3	7
157	-7	24	5	2
157	-31	25	10	0
157	-43	21	16	6
158	-40	17	27	0
158	-41	18	21	-5
158	-35	15	-14	1
157	-11	23	-30	3
158	14	24	3	-1
157	25	21	8	-1
158	2	13	8	5
158	-58	7	8	2
157	-94	15	-4	1
157	-25	18	8	-2
157	-1	19	6	4
157	9	17	6	10
157	43	15	8	3
158	47	14	3	1
158	62	7	8	-1
157	33	5	8	0
158	-5	10	3	2
158	-33	11	4	2
158	-10	18	16	0
158	26	24	18	0
157	19	22	22	-2
157	16	21	30	-7
157	22	22	17	-10
157	30	33	-13	-5
158	36	37	-13	0
158	36	29	15	2
158	22	23	8	2
157	8	24	12	4
158	8	19	9	7
157	3	19	0	7
157	-1	15	14	7
157	-4	15	15	3
157	-2	17	20	2
157	-3	13	-1	-1
158	-2	14	-17	-11
158	-4	15	3	-11
158	-3	17	1	-4
158	-6	14	0	-2
157	-17	13	6	2
158	-17	10	4	6
158	-10	12	6	3
157	-4	16	2	7
157	-9	15	7	4
157	-9	17	5	5
158	-5	21	5	10
157	-5	23	8	6
158	-1	25	8	11
157	16	18	2	14
157	32	11	4	10
158	31	12	25	4
157	8	13	24	-4
157	-19	12	27	-15
158	-12	17	25	-19
158	-4	14	12	-16
158	-11	16	6	-3
157	26	19	5	9
158	52	22	7	7
158	47	24	4	4
157	37	17	6	5
158	34	17	7	6
157	17	20	2	4
157	-10	21	1	5
158	-12	20	2	1
157	-1	20	9	3
157	12	19	14	0
159	19	23	24	-1
158	18	25	18	3
158	7	21	1	-4
157	0	21	-14	-5
157	-13	24	-28	6
158	-71	23	-7	9
158	-103	24	17	11
157	-45	21	12	2
158	-7	19	0	-4
158	32	21	-5	6
158	75	18	-6	1
158	90	21	-23	-1
157	98	21	11	-1
157	67	16	21	2
157	30	12	9	3
157	-6	13	15	-3
158	-15	19	8	-3
157	-12	19	19	-6
159	-31	19	9	-3
158	-35	18	17	-3
158	-27	22	12	1
158	-13	19	2	6
158	-1	18	12	2
157	5	18	16	1
157	19	19	18	1
158	27	21	9	2
157	24	19	13	2
158	11	23	3	-5
157	3	24	2	-4
158	1	19	7	4
158	-4	15	6	6
158	-4	18	10	8
157	-4	17	11	7
158	-4	15	4	7
157	-3	16	-4	11
158	-1	16	-1	6
157	-2	16	-6	3
157	-1	17	-12	0
158	-1	15	-1	-2
157	0	17	1	2
158	-1	14	9	-7
157	0	15	18	-3
158	1	18	21	7
158	3	16	24	3
158	2	18	31	-9
157	3	12	17	-26
157	1	8	-4	-18
158	3	13	-9	-10
158	0	13	8	-2
157	-1	11	15	-3
158	-1	12	6	-3
157	1	13	13	0
158	4	15	15	3
157	8	17	25	7
157	7	16	31	7
158	8	21	10	7
157	14	24	-15	9
158	19	23	-18	11
158	24	26	-8	7
157	16	25	-9	8
158	9	23	-5	10
157	8	22	-1	11
157	5	18	8	7
157	3	17	21	-8
158	4	19	18	-2
157	5	15	17	2
157	3	17	4	-1
157	-3	17	-4	4
158	-11	16	9	2
158	-13	16	19	4
158	-14	17	31	1
157	-4	15	23	-1
158	9	21	-15	6
157	24	24	-15	6
158	29	24	14	1
157	24	26	-13	2
158	30	27	-17	6
157	28	24	12	6
158	16	22	7	9
158	8	20	15	4
157	7	21	9	-4
158	4	22	9	-6
157	1	19	5	-3
158	3	17	2	2
158	3	15	1	2
158	3	13	5	4
157	1	15	14	7
157	3	13	6	8
157	0	11	4	5
157	0	14	7	-2
157	1	17	17	-13
157	5	17	17	-7
157	3	17	17	-2
157	2	15	23	0
157	1	15	16	6
158	1	15	5	4
158	1	15	-9	5
158	1	17	-9	2
158	3	17	-7	6
157	3	17	-3	1
157	2	17	7	0
157	1	16	10	0
158	0	19	9	-4
157	2	21	10	4
157	3	21	21	3
158	3	23	39	7
158	5	22	45	6
158	4	19	5	0
158	2	19	-25	-5
157	3	20	2	-6
158	6	21	25	-7
158	8	20	35	-3
158	8	18	30	6
158	6	19	2	23
158	7	19	0	41
157	4	15	-10	33
157	3	17	-16	48
158	5	13	-8	57
158	4	15	5	51
158	3	15	34	43
157	1	13	36	17
158	1	13	17	-4
158	5	13	7	-38
158	11	20	1	-82
158	18	27	-9	-103
158	16	26	-15	-110
157	11	26	-11	-109
158	13	27	-6	-89
157	13	24	15	-54
157	8	19	36	-25
158	3	18	17	-2
157	5	18	-3	15
158	4	17	-1	23
157	0	17	2	26
158	3	23	12	26
157	2	22	12	24
157	3	19	13	27
158	3	17	-21	36
158	0	17	-40	32
158	-1	16	-12	20
157	2	14	-4	20
158	6	13	8	18
158	5	14	8	20
157	9	15	28	24
158	9	16	43	27
158	7	17	26	22
157	7	18	4	14
157	5	20	-36	13
158	5	21	-37	7
157	5	19	-22	4
158	7	16	-3	0
157	0	13	8	-2
158	1	19	14	0
158	3	21	26	7
157	2	20	3	14
157	2	20	13	17
158	3	19	23	10
158	3	23	57	9
157	5	19	69	13
158	5	21	31	3
158	7	21	10	7
157	7	14	6	9
157	8	18	10	-3
157	7	21	-4	-12
158	4	16	-1	-24
158	2	13	25	-28
158	1	13	39	-9
158	5	11	22	6
158	7	17	2	19
158	7	21	-28	34
159	3	17	-39	32
158	6	21	-12	24
158	10	26	-35	34
158	10	25	-52	36
158	8	19	-28	7
158	10	14	-14	-11
158	5	9	14	-24
158	4	12	35	-42
158	7	16	54	-33
157	8	19	75	-32
157	7	19	111	-40
157	8	17	69	-53
157	3	20	-45	-64
157	4	25	-21	-55
158	9	19	15	-46
157	2	11	-10	-25
157	2	17	-51	-2
158	3	19	-50	4
157	4	19	-2	14
158	3	17	53	17
158	3	9	104	18
158	4	19	83	17
157	5	20	58	22
158	6	26	35	16
158	5	22	3	23
158	2	17	-51	27
158	5	19	-107	23
157	8	19	-71	30
158	4	19	-5	30
157	-9	15	17	32
157	-14	11	42	25
157	-14	10	43	14
158	-12	14	15	-1
158	1	14	3	0
157	15	17	-28	7
157	27	24	-74	-3
157	31	26	-63	-4
158	21	24	-27	-3
158	12	19	-30	-3
158	12	19	-2	-1
158	8	24	26	0
158	3	24	21	2
158	-7	19	20	-2
157	-22	20	9	-1
157	-15	17	6	2
158	-5	14	26	3
157	5	15	41	-2
158	18	15	32	-7
157	20	18	29	-6
157	19	19	38	-6
157	24	19	41	-9
157	29	23	31	-5
157	14	19	19	3
157	-1	17	21	6
158	-8	19	4	8
157	-7	19	-8	3
158	-5	18	1	-4
157	-1	17	0	-1
158	-4	14	-4	-3
157	-17	18	-3	-3
158	-14	19	2	-2
157	3	15	15	0
158	12	18	13	4
157	12	15	8	0
158	12	19	9	2
159	17	22	6	0
158	27	21	9	1
157	22	22	9	3
158	13	21	8	5
158	10	18	10	10
158	1	19	6	7
157	1	22	5	3
157	0	19	8	0
157	-1	18	7	4
158	1	16	5	3
157	-3	15	9	-2
157	-3	16	12	4
158	10	16	14	-6
157	12	17	3	-1
158	4	21	1	4
158	0	19	19	6
159	-5	17	21	13
158	-3	15	10	8
158	1	15	-17	8
158	3	15	-13	8
158	4	13	0	2
157	5	17	-8	-5
158	8	18	8	-6
157	7	18	3	-1
157	7	15	6	-6
157	5	15	4	-8
158	7	18	0	-5
158	3	17	19	-8
157	5	23	23	-6
157	4	20	23	-2
157	-1	22	12	-1
157	2	21	0	0
158	0	13	-5	3
157	3	14	0	2
158	5	15	7	-2
157	13	18	1	-1
157	31	19	5	-1
157	32	17	15	2
157	16	19	15	5
157	10	18	10	8
157	1	18	6	7
157	-8	26	-1	2
158	-35	21	4	-5
157	-94	19	6	-4
158	-111	19	0	-1
158	-53	17	-2	-1
158	-6	19	7	0
157	29	17	17	8
157	59	15	10	11
157	62	16	10	8
157	84	17	11	-1
157	85	12	28	-2
157	66	14	34	-1
158	53	19	25	2
157	23	22	8	3
157	-2	27	-24	4
157	-6	26	-14	4
158	0	25	7	-2
157	3	23	3	1
158	6	19	5	-1
157	5	19	2	0
157	8	17	2	0
157	12	21	6	-7
157	3	22	6	-4
158	-3	17	10	0
158	0	16	-11	7
157	-1	16	-10	10
158	-9	14	3	10
158	-11	12	1	12
157	-10	15	9	9
158	-10	15	18	4
157	-8	15	28	6
157	-10	13	18	7
158	-8	13	5	2
158	6	16	15	-4
157	20	18	-7	-4
158	12	19	-12	-6
158	7	17	18	-11
157	11	17	1	-6
157	8	17	8	-4
158	-5	18	10	-4
157	-32	21	-4	2
157	-31	21	6	6
157	-3	19	8	7
157	5	15	9	9
158	3	19	12	3
157	5	17	14	2
157	3	17	12	2
158	0	19	14	0
157	5	19	9	5
157	9	17	6	-4
157	7	21	7	-3
158	6	19	9	3
158	9	17	14	0
157	10	17	13	4
157	10	17	10	4
157	9	19	7	9
157	9	22	14	7
158	4	19	18	4
157	3	19	20	4
157	5	16	25	-4
158	-8	14	9	1
157	-53	11	-25	7
157	-68	13	-20	-8
158	-17	18	2	-13
158	-5	18	-3	-4
158	23	17	2	1
157	69	19	4	4
158	81	18	5	2
158	96	17	8	6
158	84	20	6	4
158	60	19	4	6
158	24	16	9	8
157	-5	20	12	1
157	2	21	11	2
157	-3	22	25	2
157	-10	23	26	5
158	-12	23	6	-2
158	-10	21	-26	2
157	-9	18	-19	3
158	-9	15	14	-1
157	-8	16	10	6
157	-5	16	20	-2
157	-7	19	15	-7
158	-7	21	10	-6
158	-7	17	23	-5
158	-4	19	25	2
158	0	17	25	2
157	-1	16	-2	0
157	1	21	-12	-7
157	0	23	10	-11
158	-3	20	5	-2
158	0	18	-11	3
158	1	15	-18	8
158	4	14	0	6
157	3	15	16	4
157	2	15	7	4
157	4	17	16	-1
158	5	19	8	6
157	5	17	14	6
157	4	17	16	4
157	4	21	5	8
157	1	20	10	5
157	2	19	9	-1
158	1	17	-1	1
157	3	13	-15	-2
158	3	17	-1	-6
158	5	21	6	3
157	10	22	5	6
158	17	24	5	10
157	10	16	10	9
158	4	17	13	5
157	11	18	4	-3
158	9	18	5	-6
157	7	21	8	-3
158	3	19	14	-2
158	5	17	11	1
157	4	18	9	0
157	6	19	19	1
157	5	17	17	2
158	3	19	8	0
157	3	18	0	-1
158	3	17	6	0
158	6	19	6	2
158	7	18	6	-2
158	10	22	17	-2
157	10	22	20	3
158	8	15	12	5
158	5	16	-6	3
157	5	15	5	6
157	5	17	14	4
157	7	19	5	-1
158	8	19	-15	-1
158	7	20	-21	0
159	7	22	0	-2
158	7	21	-6	-4
158	5	20	3	6
157	4	17	5	6
157	5	17	7	4
157	2	16	21	0
158	-1	15	28	-2
158	-9	15	33	0
158	-17	19	19	0
157	-10	20	16	-2
158	5	18	16	1
157	9	18	16	3
158	11	17	17	2
158	13	17	21	0
158	14	19	28	0
157	19	19	10	-3
157	14	22	-19	-1
157	14	24	-26	0
157	14	17	-6	3
157	10	18	4	4
157	9	18	0	3
158	9	15	6	13
158	13	15	4	7
157	14	15	5	4
157	5	17	6	2
158	-1	16	7	-3
158	-4	12	17	0
158	-6	14	13	0
157	-3	18	10	-1
158	1	16	11	2
157	0	19	10	2
158	2	26	15	-3
157	4	24	16	-2
158	4	24	9	-1
158	2	19	1	-1
158	4	15	4	4
157	4	17	14	6
158	1	17	21	7
158	2	15	12	8
158	4	14	-21	3
157	7	15	-25	2
158	7	20	1	-3
158	5	22	-4	-4
158	3	19	1	0
157	6	18	3	0
158	3	16	4	3
157	5	16	9	0
158	8	18	6	2
158	5	18	12	4
157	5	19	13	8
157	3	21	17	2
158	4	19	8	4
157	5	19	2	10
158	6	19	2	10
158	6	13	-6	9
158	7	16	0	7
157	5	17	6	6
158	4	17	9	7
158	5	21	10	7
157	4	15	5	7
158	9	18	8	7
158	3	20	7	13
157	2	16	6	19
158	4	19	6	15
158	6	20	-2	7
157	8	23	-8	0
158	6	19	-2	-5
157	8	19	7	-14
158	7	21	10	-23
157	7	21	21	-36
157	7	18	30	-34
157	7	18	22	-27
158	9	18	27	-36
157	8	21	38	-36
159	9	18	49	-38
157	5	16	48	-24
158	5	11	13	4
158	5	14	-38	22
157	4	18	-47	39
158	5	16	-2	44
157	4	19	16	40
158	3	15	8	39
159	3	19	5	35
157	7	19	6	32
157	7	17	11	22
157	7	19	11	10
158	8	24	6	-9
157	10	22	5	-21
158	8	22	1	-41
157	6	19	-1	-56
157	6	17	-9	-59
159	3	17	-1	-74
158	3	15	6	-42
159	1	14	4	2
158	2	17	5	7
157	3	14	1	20
157	3	15	5	16
158	5	22	1	15
157	3	16	5	23
157	5	17	10	19
157	3	19	13	24
157	3	19	25	21
157	0	22	34	22
158	1	22	46	18
158	2	24	30	14
157	3	20	-9	19
157	7	14	-3	12
158	1	14	-15	15
158	5	18	-20	18
157	5	16	9	24
157	5	16	-8	30
157	2	16	3	26
157	1	16	1	21
158	1	17	-11	14
158	5	20	-2	14
158	8	21	-2	10
158	5	19	17	9
157	8	19	31	6
157	10	21	46	-6
158	7	20	32	-25
158	4	16	22	-40
157	8	19	15	-44
157	12	23	1	-49
158	10	19	15	-45
158	8	24	12	-45
157	8	18	2	-34
157	3	12	-13	-10
158	4	14	-27	0
158	8	17	-9	7
157	5	15	15	9
158	7	11	15	8
158	6	9	13	14
158	4	13	0	15
157	3	19	2	16
158	4	18	4	16
158	5	21	-1	15
157	6	18	5	13
158	4	17	6	12
158	2	19	8	12
158	3	19	3	4
159	1	22	8	3
158	4	19	7	9
158	5	19	6	14
157	6	18	16	11
157	5	19	8	8
158	6	19	6	7
157	5	17	3	3
157	6	21	1	0
158	7	21	3	-2
158	7	22	4	3
157	5	21	9	9
158	4	17	20	13
157	5	18	25	9
158	7	18	14	-1
158	8	21	1	-7
158	6	16	-1	-9
158	0	13	5	-11
157	2	19	-1	-16
158	4	22	11	-6
158	3	20	38	2
158	3	17	42	9
157	4	17	14	2
158	4	18	-58	1
158	5	21	-77	2
157	3	16	-13	1
158	3	16	9	6
158	8	19	19	5
157	6	14	20	4
157	6	15	23	3
158	6	17	46	3
158	6	18	31	-8
158	4	18	13	-10
158	2	18	-15	-14
158	3	19	-14	-25
158	4	21	27	-19
158	5	19	32	-8
158	5	19	21	1
157	3	19	22	8
158	2	17	13	13
158	5	17	13	13
157	5	17	9	10
158	3	19	5	12
158	3	18	8	8
157	5	18	5	11
157	3	20	7	7
158	5	20	4	0
158	5	17	6	2
158	5	15	9	0
157	4	15	4	-1
158	3	17	5	1
158	5	17	1	0
158	4	19	4	3
158	8	22	7	-2
158	8	24	8	-7
157	8	24	10	-10
157	6	23	8	-7
157	8	22	-1	-6
157	6	18	-15	-8
157	5	21	-22	-5
158	6	18	-2	-2
158	4	17	0	0
158	4	17	-8	9
158	5	14	8	13
158	7	14	16	13
157	5	15	24	10
158	5	17	29	4
158	2	14	15	6
157	3	17	4	-1
158	4	16	3	-3
158	1	14	-22	4
157	5	18	-4	0
157	7	16	20	0
157	6	19	8	-2
158	7	18	23	-2
158	5	16	14	3
158	3	17	10	2
158	7	19	5	2
157	9	19	2	3
158	7	17	6	4
157	7	19	0	8
157	4	18	10	8
158	3	18	18	10
157	3	17	21	10
157	4	17	14	6
158	5	19	5	11
157	6	19	-2	16
158	3	20	-3	12
157	4	22	3	15
158	5	20	0	15
157	5	19	7	4
157	5	19	17	2
158	3	16	14	-7
157	4	17	4	-18
158	5	20	0	-21
157	5	17	2	-23
158	5	22	3	-25
158	7	22	2	-25
157	6	21	5	-28
157	3	21	13	-25
157	3	16	9	-4
157	2	16	9	7
157	2	18	8	5
157	5	17	10	5
157	5	19	8	2
158	5	18	-8	2
158	3	17	-9	10
158	1	15	16	15
158	3	16	32	17
157	3	14	17	25
158	3	15	17	36
158	7	17	17	28
158	4	19	17	25
157	5	15	19	25
158	5	14	6	10
157	4	17	-4	2
158	6	19	-15	-16
157	8	22	-9	-38
158	9	21	-20	-36
158	7	19	-4	-36
157	8	21	20	-26
157	6	21	11	-8
158	5	22	15	3
157	5	19	-9	13
158	8	14	-7	18
158	5	15	-2	23
157	5	16	-5	22
157	4	18	-12	23
157	3	17	-21	21
158	4	19	-16	22
158	4	19	-1	20
158	5	17	25	8
158	2	22	48	4
158	3	17	82	0
158	-1	14	75	-4
158	0	16	32	1
157	8	21	-9	8
158	8	23	-41	15
157	10	19	-35	9
158	7	19	1	-8
157	7	23	0	-22
157	10	21	-5	-41
157	7	18	9	-45
157	8	21	24	-48
159	5	21	81	-60
158	3	20	98	-60
158	5	17	42	-49
158	4	12	37	-30
159	2	13	41	6
158	1	15	0	31
158	1	17	-16	43
158	0	17	-7	48
157	3	15	-14	45
158	3	17	-56	40
157	4	17	-57	29
157	3	18	-26	25
157	3	16	-9	8
158	3	18	-13	-9
158	7	22	-8	-28
157	10	22	0	-48
157	11	18	-3	-30
157	8	14	15	-6
157	8	15	9	5
157	6	17	3	21
157	6	18	17	24
158	8	23	25	20
157	7	18	23	16
158	4	16	-15	15
158	5	18	-21	24
158	7	19	-3	20
158	6	23	-2	14
158	7	18	8	10
158	4	18	8	9
157	5	19	12	9
157	8	18	11	8
158	3	17	10	10
158	3	18	22	8
157	5	17	25	10
158	8	16	26	4
158	7	18	21	7
157	7	19	9	6
157	8	26	14	-3
158	5	21	39	0
158	3	14	20	-2
157	2	19	-15	-1
157	7	21	-3	2
158	3	15	-4	0
159	6	16	-30	8
157	3	16	-35	3
158	3	17	-13	2
157	3	19	-8	2
157	1	20	2	-3
158	1	18	15	-1
158	3	16	17	0
158	1	17	18	4
158	3	20	17	7
157	9	19	34	4
158	4	19	49	-6
158	8	22	38	-6
158	7	19	34	-14
157	4	15	45	-23
157	2	22	9	-26
157	5	19	-32	-27
158	5	17	-20	-11
158	6	17	-2	-1
158	8	17	19	-3
157	8	19	23	-2
157	7	21	-6	-4
157	7	18	-1	-6
158	5	20	5	-1
157	5	17	-3	0
158	3	19	15	8
157	2	18	29	10
158	3	14	38	17
157	1	15	32	30
157	2	15	27	34
158	5	15	8	37
157	4	18	6	32
158	4	19	-5	18
157	5	19	-24	-1
158	2	21	-29	-18
158	3	17	-40	-37
157	4	17	-15	-62
158	9	24	-33	-71
157	16	26	-40	-67
158	10	21	29	-54
157	5	15	53	-30
158	4	17	37	2
157	5	22	15	31
157	5	25	25	38
157	3	19	25	38
158	3	14	-6	32
158	-1	9	-5	29
157	0	7	-19	22
158	1	11	-11	0
157	3	14	0	1
157	4	21	-16	-14
158	5	21	-37	-16
158	6	19	-35	-10
158	5	19	33	-7
157	7	20	61	23
157	8	17	70	26
158	10	18	52	22
157	8	22	2	18
157	5	22	31	21
157	3	19	35	19
157	3	15	26	7
157	4	20	-3	-1
158	8	22	-28	2
157	8	17	-12	0
157	4	15	-10	0
158	4	15	19	3
158	4	17	12	1
158	3	16	10	2
158	3	16	15	4
158	6	19	8	5
158	8	18	1	1
157	5	17	-13	-1
158	1	17	-3	7
157	7	18	-12	6
157	8	17	-3	4
157	6	14	7	4
157	4	13	16	7
158	1	14	26	4
158	1	16	27	6
157	3	18	29	3
157	1	15	3	-1
157	1	15	-15	11
158	5	16	-29	16
158	4	15	-28	21
158	3	17	-12	15
157	3	15	15	-2
157	6	14	25	-13
158	8	22	-15	-27
158	8	22	-20	-29
158	7	21	5	-12
157	5	19	12	-16
158	8	17	27	-25
157	4	17	35	-9
157	2	17	30	-2
157	8	15	41	-4
158	8	18	21	-1
157	2	18	-17	2
158	-10	21	1	4
158	-15	19	2	10
157	0	17	1	17
157	11	22	4	12
158	11	20	22	13
157	11	22	49	15
158	13	22	19	7
158	21	21	13	13
157	23	24	11	19
158	21	27	17	12
158	19	23	26	6
157	14	22	21	0
158	9	22	9	0
157	6	18	-9	2
158	3	19	13	-9
157	1	19	17	-22
158	3	22	-18	-34
157	2	24	-42	-37
158	0	21	-17	-35
158	-1	18	8	-18
157	-1	19	-9	2
157	0	13	-3	2
158	1	13	9	8
158	6	20	23	17
158	5	17	22	14
157	1	15	-13	12
158	4	16	-45	17
158	2	14	-15	22
157	0	12	18	26
158	1	12	26	18
158	3	15	42	14
158	4	20	21	9
158	4	18	0	2
157	4	15	-33	-3
158	4	18	-45	-22
157	4	16	-31	-37
158	4	17	-15	-31
157	3	20	21	-22
157	3	15	10	-27
157	3	17	-3	-9
157	3	20	16	10
157	6	17	64	11
158	4	18	63	17
158	4	15	79	12
158	4	18	90	22
158	5	22	-2	15
158	7	20	-8	10
158	5	21	-1	6
158	5	19	-2	3
158	5	18	27	-1
157	4	17	13	-1
157	2	17	-1	11
158	3	19	-4	8
157	5	15	1	15
158	5	14	0	12
157	5	15	-2	9
157	3	17	4	4
157	8	18	2	0
157	5	17	-14	3
158	5	17	-12	4
158	4	17	12	4
158	3	21	48	6
157	5	17	66	4
157	3	21	21	-2
158	8	25	-37	0
158	11	23	-42	-1
158	11	14	-31	2
157	6	16	-20	2
157	4	14	7	0
157	4	18	15	-1
158	5	22	15	0
157	3	20	2	2
158	3	19	-1	2
158	4	17	7	1
158	4	19	16	-3
158	4	16	32	-2
157	-13	19	12	-2
158	-33	18	-10	-4
158	-32	16	-27	2
157	-16	16	-10	2
158	7	19	6	-8
157	23	20	-4	-9
158	27	21	0	-4
158	45	27	-34	6
158	55	24	-11	0
157	43	25	32	-7
158	31	27	25	-2
157	19	19	32	2
157	10	14	10	1
158	7	18	-10	5
158	5	22	-2	0
158	2	18	17	2
157	1	18	10	8
158	0	18	6	3
158	-4	18	9	0
157	-4	18	8	2
157	-4	17	15	4
158	-3	17	9	2
158	-2	13	16	-2
157	-1	17	23	0
158	-1	17	30	-1
158	-1	18	19	-2
157	-2	18	8	1
158	-1	19	15	4
157	2	14	16	7
157	2	14	14	4
158	1	17	13	7
157	0	15	13	6
157	2	19	12	2
158	3	21	8	2
157	6	19	8	2
157	6	17	5	6
158	4	15	5	0
158	5	17	6	-4
157	5	18	4	-2
158	1	17	6	7
158	1	19	5	5
157	5	19	4	5
158	3	18	4	4
158	5	17	10	5
158	3	15	25	0
157	2	16	8	0
157	5	17	-28	1
157	7	20	-31	4
157	10	20	11	9
158	7	23	26	3
158	6	21	25	1
158	5	21	24	-5
158	6	21	-13	2
158	8	17	-35	6
158	4	15	-24	0
157	5	17	1	0
157	5	14	15	-6
157	5	14	23	-15
157	4	17	10	-22
157	7	18	10	-17
157	7	21	36	-7
158	5	16	52	-9
157	6	20	26	-4
158	5	23	-38	3
158	7	19	-16	1
158	5	21	20	2
157	9	21	21	0
158	7	21	9	1
158	5	22	12	8
157	5	15	24	17
158	3	14	12	20
158	3	14	-8	18
158	3	15	-18	10
157	-2	15	10	11
158	-18	17	0	6
157	-32	18	-5	-5
158	-20	15	2	0
158	-1	17	8	2
157	10	14	15	7
157	17	17	2	1
157	25	18	6	-1
157	38	17	1	0
157	38	24	1	-1
157	30	25	1	-1
158	20	22	-2	0
157	16	22	15	5
157	12	20	20	7
157	-3	17	24	7
157	-4	16	32	7
157	7	17	19	-7
158	18	22	-3	-18
157	24	25	-25	-4
157	10	23	12	0
158	-4	17	38	-3
157	-8	14	0	3
157	-12	16	-5	3
158	-3	15	-3	3
157	3	14	-1	2
157	3	21	12	-1
158	1	19	16	1
157	-3	17	19	3
158	1	16	23	3
158	0	15	27	-1
159	-2	16	17	3
157	0	18	-8	4
158	0	19	-16	4
158	1	15	-16	4
158	1	19	-21	3
157	4	19	-16	4
158	4	17	9	4
157	5	18	29	4
157	3	16	21	4
157	3	20	4	-3
158	1	21	-6	-4
157	3	20	-6	-4
158	6	22	3	-4
158	7	19	6	-1
157	5	19	12	1
157	3	18	25	2
158	4	17	35	2
157	4	19	30	7
157	3	18	23	8
157	1	13	34	7
158	4	15	27	4
158	3	14	-20	-6
157	2	15	-33	3
157	4	18	-4	2
158	3	16	2	0
157	5	18	0	2
158	7	19	6	-2
158	6	20	10	-6
157	4	18	9	0
157	4	20	5	4
157	5	18	10	-2
158	7	17	8	-1
158	9	17	10	0
158	5	19	14	4
158	7	21	13	1
157	7	19	13	2
157	6	19	13	4
157	4	21	18	6
157	7	21	6	6
157	5	17	5	4
159	5	19	0	-5
157	3	21	-7	-12
157	5	22	12	-6
158	5	19	15	-3
157	7	19	5	-1
157	8	18	-21	0
158	8	17	-10	4
158	7	17	6	1
158	5	18	-6	4
158	5	17	10	0
158	5	18	17	3
158	4	23	40	8
157	4	19	49	0
157	4	17	-1	8
157	5	17	-77	14
157	7	10	-42	6
158	5	13	13	4
158	7	19	-11	2
157	9	17	16	-5
157	7	16	13	-6
158	7	15	7	-7
157	3	14	5	-2
157	4	19	2	-2
157	6	15	2	2
157	4	17	0	8
157	3	18	26	4
157	3	15	50	1
158	5	20	77	2
158	2	19	41	1
158	9	21	6	-5
158	14	25	-9	-3
158	11	21	-6	2
159	7	18	23	5
158	4	17	23	-1
158	4	19	27	-2
157	4	19	17	-3
157	2	18	1	-2
157	-6	17	-6	1
158	-7	18	15	7
157	-5	17	23	12
157	-1	17	-23	0
158	7	20	-32	-1
157	8	19	-7	-3
157	21	19	2	-5
158	24	19	-3	3
158	19	18	-8	7
158	10	17	0	9
158	5	13	5	11
157	10	11	-1	9
158	7	15	0	-4
157	5	18	10	-12
158	3	21	21	-7
157	-2	19	19	-5
158	-4	15	-18	-5
158	-1	16	-14	7
158	0	15	35	6
158	-3	16	23	-1
158	-1	22	3	3
157	1	25	-23	2
157	11	25	-11	5
158	17	24	15	10
157	9	22	-2	4
158	8	18	10	3
157	12	18	6	9
157	5	15	9	3
157	3	17	8	2
158	-2	17	2	3
157	-8	15	15	3
157	-1	18	15	5
157	3	20	24	3
157	4	18	28	-2
158	1	19	35	-2
158	-3	10	25	-4
158	8	13	14	-9
157	19	19	6	-9
158	17	17	-3	-4
157	10	23	2	1
158	6	24	-1	4
157	1	21	3	9
158	1	19	7	9
158	3	20	1	3
157	5	20	3	-2
158	8	21	2	0
158	6	19	7	8
157	4	23	10	7
158	3	17	6	4
158	5	16	1	-1
158	7	20	-1	4
158	6	21	14	-1
158	3	16	30	-3
157	5	12	15	8
158	2	14	-1	-2
158	-10	15	11	-13
157	-18	18	13	-7
158	-11	18	27	-7
157	1	18	40	-2
159	5	17	33	3
157	8	12	15	-5
157	12	17	-27	-3
158	25	19	-43	1
157	27	22	-45	4
158	20	24	-19	4
157	16	19	-5	0
157	14	21	-8	3
157	12	22	5	1
157	4	20	-5	4
158	4	18	14	2
157	4	21	35	4
158	0	18	37	7
157	1	14	-1	13
159	3	19	-31	20
158	4	15	16	6
157	2	15	5	12
157	3	17	5	10
158	3	17	19	2
157	1	22	6	2
158	1	19	17	1
157	2	18	6	-2
158	3	17	7	-12
158	3	18	4	-19
158	3	17	2	-15
157	3	14	1	-3
158	5	17	1	0
157	3	15	10	6
158	4	14	32	1
157	3	11	65	-5
158	2	14	65	-2
157	0	17	40	-2
158	2	18	-1	2
158	4	21	-17	6
157	1	17	-3	9
158	1	17	-1	6
157	3	19	-9	-2
158	5	15	-6	2
158	5	12	-8	4
157	8	18	2	0
157	10	22	10	4
157	8	21	4	-2
158	5	21	15	-4
158	7	19	3	1
157	7	18	-11	0
157	7	20	-15	1
157	7	21	14	6
158	5	19	40	11
158	6	22	10	10
158	3	22	12	12
157	3	20	-1	10
157	7	19	-12	4
157	7	23	8	-4
157	5	22	10	-5
157	4	15	21	-1
158	4	15	31	-6
157	4	19	32	-6
158	5	22	43	-7
158	4	22	52	-12
158	5	18	12	-15
157	5	15	-57	-6
157	0	14	-59	0
158	-8	14	-23	1
157	-10	19	-15	7
157	-4	16	-3	6
157	-2	13	3	15
157	4	15	5	11
158	12	19	6	0
158	28	21	7	3
158	28	24	12	2
158	20	27	9	2
157	-4	19	17	2
158	-19	18	18	3
157	-1	19	13	2
158	1	19	5	6
157	8	19	1	5
157	16	17	21	2
157	18	17	21	3
158	25	19	-8	9
158	21	21	-12	11
157	12	19	3	9
158	10	17	0	4
157	10	18	4	-4
157	6	18	17	-5
157	1	17	24	-4
157	0	17	28	-1
158	1	17	14	0
158	0	16	3	-6
158	0	21	-1	-9
158	0	18	2	-7
157	0	18	6	0
157	0	18	16	-4
159	3	19	16	-8
158	2	18	4	-3
157	2	14	3	4
158	3	11	9	9
158	2	14	16	5
157	1	15	22	10
158	1	17	16	16
158	0	22	0	16
157	3	19	2	14
158	1	18	9	9
158	4	17	6	6
158	9	15	2	-1
158	10	16	14	0
158	8	21	16	-11
158	9	22	3	-14
158	8	22	6	-21
158	5	17	22	-23
158	4	13	13	-18
157	2	17	-32	-11
157	5	16	-42	-10
158	8	17	-12	-9
158	8	19	-1	-3
157	9	21	5	-6
157	3	19	8	2
158	3	17	9	11
157	4	16	18	15
158	2	16	20	17
158	4	18	18	17
157	9	18	15	13
157	6	19	8	11
158	5	20	10	11
158	8	19	22	14
157	8	16	37	11
158	5	17	15	12
158	3	16	-28	22
157	5	18	-17	21
158	5	19	-6	15
158	5	19	-22	10
157	3	19	18	-2
158	1	17	47	-9
158	5	19	21	-21
158	10	17	10	-23
157	10	18	22	-26
157	8	21	26	-36
158	7	18	15	-34
157	7	21	-8	-28
159	5	21	0	-14
158	3	17	4	-2
157	3	18	3	4
158	2	17	17	9
157	2	18	6	10
158	4	22	7	11
158	4	19	15	9
158	3	19	19	15
158	5	14	1	15
157	3	13	-28	14
157	4	16	-29	13
157	5	17	-10	8
157	1	12	31	5
157	1	12	25	5
157	3	18	-1	8
157	3	19	-1	12
158	3	21	15	18
157	4	21	54	16
157	4	15	51	9
158	6	14	-30	17
158	9	18	-42	15
158	10	17	8	3
158	8	21	11	6
158	9	22	34	-5
157	8	19	44	-13
158	8	21	9	-18
157	9	19	-29	-13
158	8	21	-8	-2
157	6	22	20	-7
157	3	19	0	-4
158	8	19	1	-2
157	4	19	-13	-1
158	3	18	-3	-4
158	-1	18	2	-2
157	-1	16	0	-1
158	3	15	14	-1
158	5	17	20	-1
157	1	17	27	0
157	3	17	0	3
158	2	22	-18	10
157	3	19	-7	10
158	10	19	-3	12
157	20	22	4	18
158	18	24	22	13
158	7	24	5	11
157	0	22	-12	4
158	5	19	13	3
157	5	19	25	1
158	5	20	18	3
158	5	17	17	9
158	4	18	6	6
158	5	18	2	7
157	7	19	4	0
158	5	19	0	-12
157	4	17	2	-16
157	4	17	22	-24
157	5	17	46	-43
157	3	21	38	-45
158	3	16	28	-21
158	1	13	0	2
158	0	12	-2	9
157	1	15	6	15
157	3	14	-3	16
158	2	17	-8	8
157	1	20	-12	1
158	1	18	-16	-12
158	2	20	-12	-13
157	5	21	14	1
157	8	22	23	13
158	7	19	41	14
157	3	17	22	15
158	3	21	-15	15
157	5	19	7	24
158	3	17	5	29
157	3	15	-13	27
157	1	14	-12	27
157	2	13	5	31
157	7	20	-21	25
158	8	22	-44	5
157	10	18	-6	-21
158	14	22	-4	-50
157	18	19	21	-69
158	11	13	59	-67
157	4	16	62	-37
157	5	17	42	-16
157	5	20	31	-2
159	5	18	30	7
157	5	15	16	13
157	5	19	12	14
158	8	17	1	9
157	7	19	2	12
157	5	19	1	13
157	6	17	0	12
158	5	19	4	10
158	4	18	0	11
158	1	17	-2	10
158	1	18	-1	14
158	3	21	-3	15
158	3	19	0	21
157	4	18	14	24
158	5	19	6	21
157	5	18	-11	18
158	5	22	-10	9
157	4	22	0	8
157	4	19	6	11
158	4	19	13	8
157	3	18	6	2
158	4	19	-1	1
158	4	21	16	-1
158	8	19	31	-7
157	10	19	32	-11
157	5	17	13	-15
157	4	15	-14	-18
158	1	16	-24	-18
157	-1	19	-15	-15
157	4	17	0	-5
157	5	17	-8	0
158	5	17	-18	-2
158	7	19	-7	2
157	5	20	6	9
158	3	19	8	15
157	5	18	12	14
157	7	17	17	17
158	5	17	15	18
157	7	18	19	15
157	7	19	24	10
158	4	18	24	4
157	4	19	13	1
158	2	14	6	-4
157	1	14	21	-9
158	4	21	34	-17
157	3	17	11	-18
158	5	13	-32	-6
157	8	16	-18	-5
158	5	19	25	-12
157	5	22	16	-15
158	7	21	25	-19
157	8	19	38	-5
158	10	14	18	11
157	10	11	21	16
157	7	13	3	15
158	5	19	-21	18
157	4	16	-16	19
158	1	16	-8	19
157	-3	16	-12	22
157	-3	14	-11	19
158	1	13	12	13
158	-3	14	29	4
157	-6	16	32	-2
157	1	23	24	-6
157	8	26	27	-17
158	14	21	36	-26
157	17	19	23	-32
158	15	24	-22	-35
158	8	24	-16	-22
158	11	19	12	-8
157	10	16	9	0
157	7	15	6	6
157	5	17	-16	-1
158	5	17	-31	4
157	1	19	-7	8
157	4	18	10	8
157	4	15	16	9
157	2	17	22	-1
158	4	15	-9	4
158	4	23	-5	10
158	6	21	46	12
158	3	19	16	16
158	5	21	9	11
158	3	19	13	4
157	1	17	-2	4
157	2	20	0	2
158	1	23	-4	2
158	5	18	20	9
157	5	19	14	2
157	7	19	-6	-2
159	9	22	-20	-4
157	7	22	10	-14
159	4	13	34	-21
158	1	11	15	-13
158	3	19	-14	7
158	2	22	-24	10
158	4	19	8	8
158	2	14	-18	19
158	3	14	-12	22
157	5	20	10	21
157	5	15	27	21
157	5	17	25	7
158	6	21	-11	-6
157	10	16	16	-14
158	5	15	26	-21
157	3	13	30	-31
158	4	17	23	-20
158	5	15	13	-7
158	8	21	19	-4
158	9	18	21	-3
157	7	16	25	-4
157	5	18	4	-6
157	3	16	-1	-7
157	4	22	-3	-2
157	5	19	0	2
158	3	21	3	6
157	4	24	6	10
157	3	23	11	14
157	4	19	15	21
157	7	21	26	18
158	7	19	10	16
158	5	17	6	18
157	3	19	17	24
157	5	17	15	18
158	5	19	5	17
158	7	18	-1	15
158	7	19	3	-5
158	5	18	2	-13
157	3	16	6	-17
158	5	17	-17	-19
158	5	18	-9	-10
158	7	21	13	3
158	6	19	-1	9
157	6	17	11	8
158	4	15	8	4
157	5	15	5	-8
158	7	17	-1	-18
158	4	21	-3	-26
158	5	22	2	-20
157	5	19	-5	-6
158	2	18	2	-1
158	3	19	8	6
157	5	19	18	19
157	5	22	24	26
157	5	20	29	20
157	8	16	28	7
157	4	17	13	-11
158	5	17	-12	-22
158	4	16	-18	-24
158	4	19	18	3
158	8	21	36	13
157	5	17	17	13
158	6	17	-10	11
158	7	16	-19	10
158	5	16	-39	17
159	5	17	-30	13
157	8	17	14	9
158	7	19	6	4
157	6	17	7	3
158	3	15	20	2
158	1	16	21	-3
158	4	15	20	-11
157	5	22	10	-19
158	5	25	13	-14
157	2	21	-2	3
158	1	16	-12	14
157	5	18	-4	11
158	7	21	11	18
157	10	21	10	21
158	8	22	2	15
158	7	19	9	11
158	5	19	28	8
158	8	16	42	4
157	7	16	46	0
158	4	18	49	-6
157	3	14	41	-6
158	4	18	22	-11
157	6	18	5	-23
157	5	18	-24	-20
157	5	21	-27	-28
157	2	17	-13	-32
158	3	19	-20	-32
158	4	19	-12	-16
157	3	18	-5	21
157	3	18	10	20
158	2	17	18	25
158	5	17	19	22
157	5	19	15	9
158	8	19	7	2
158	5	19	9	-3
157	7	19	6	-13
158	5	16	7	-23
158	4	14	15	-14
157	5	20	8	-11
157	5	18	5	-2
158	6	19	10	13
157	4	23	6	25
157	4	16	3	24
158	3	17	-1	23
158	2	20	7	24
157	5	17	6	22
158	5	16	7	17
158	4	17	4	15
157	6	19	-9	14
158	5	17	1	-2
157	3	18	6	-9
157	5	20	13	-12
158	5	19	16	-22
158	7	17	7	-28
157	4	17	-5	-21
157	2	23	-15	-5
158	1	14	14	-6
158	2	12	13	-3
158	5	16	1	10
157	7	16	19	16
157	8	17	11	19
157	5	17	26	12
158	4	22	26	4
158	5	23	31	-4
158	3	19	15	0
157	5	16	-58	14
158	7	20	-44	12
158	6	15	18	14
157	3	15	4	9
158	4	18	-18	4
157	6	18	-19	3
158	5	19	1	-5
159	3	17	21	-11
157	5	18	21	-13
158	3	19	21	-4
157	3	20	12	1
157	4	21	25	2
157	7	22	29	3
158	7	17	28	7
158	5	16	18	7
158	7	22	-4	-1
157	8	21	0	0
157	6	20	15	2
158	6	17	10	-2
158	7	14	10	-3
157	5	17	10	-2
158	2	16	6	2
157	5	18	12	3
158	5	21	2	5
157	2	16	-2	8
157	4	18	-6	10
158	4	17	3	10
157	3	14	15	11
158	4	17	19	6
157	5	16	27	-3
158	6	19	22	-3
158	6	22	15	4
157	6	20	15	0
158	5	18	13	-4
157	6	19	-3	-6
158	2	19	-6	-4
158	2	18	-19	-10
157	5	17	-13	-13
157	3	15	32	-2
158	4	19	30	1
157	6	22	18	4
158	4	23	-8	3
157	6	22	-16	13
158	5	18	15	18
157	7	19	12	18
157	8	19	16	26
158	6	12	12	26
158	4	9	-3	16
157	4	18	-12	8
158	8	19	-7	6
158	7	17	8	-14
157	4	15	-1	-30
157	6	17	9	-41
158	10	18	1	-50
157	6	16	-2	-54
157	4	21	9	-47
158	4	21	35	-12
157	5	23	53	27
158	5	21	35	39
158	5	19	38	49
157	1	13	17	46
158	3	13	-28	34
158	8	21	-35	2
158	5	20	15	-45
158	5	20	19	-82
157	8	21	-12	-92
157	8	23	0	-69
158	5	19	6	-46
157	1	17	10	-7
158	2	17	13	16
158	5	19	4	14
157	7	18	5	25
157	3	16	2	29
158	2	15	4	32
158	5	14	8	34
157	2	17	2	31
158	5	17	4	27
158	5	15	0	27
158	5	18	1	23
157	3	13	3	26
158	3	16	4	27
157	7	19	22	25
157	7	18	47	23
158	6	18	58	19
158	3	15	16	15
157	3	17	-69	12
157	5	23	-65	12
158	4	20	6	3
158	7	15	2	4
157	5	14	10	-6
158	5	17	10	-14
158	6	18	1	-8
157	3	18	16	-9
157	4	17	6	-10
157	4	17	9	-10
158	6	22	8	-2
157	8	21	9	2
157	9	23	5	2
157	10	22	4	8
157	9	17	16	10
157	4	17	13	2
157	8	18	9	0
157	7	19	8	2
157	5	18	23	3
157	2	17	28	4
157	1	15	-4	-6
158	3	18	-30	-7
157	5	18	-5	0
157	4	23	15	-1
157	4	21	21	-6
158	2	17	24	1
157	3	14	6	-2
158	4	17	0	-8
157	5	23	4	-11
158	8	24	12	-5
158	8	18	15	7
157	5	16	10	7
157	4	17	7	11
158	3	17	12	3
157	4	20	4	2
158	6	16	11	3
158	5	17	15	7
157	4	22	10	13
157	7	17	13	18
157	4	20	20	19
157	2	23	37	18
157	7	17	22	21
158	5	16	-23	6
157	7	17	-35	-7
158	3	13	3	-13
158	3	15	-19	-25
157	5	21	-32	-23
157	6	22	8	-18
157	7	22	2	-21
158	5	15	22	-20
157	1	15	30	-16
157	3	19	32	-11
157	5	16	20	-1
158	3	17	2	3
157	6	19	2	-4
158	8	20	-15	-23
158	7	15	11	-54
158	6	15	35	-71
157	5	16	18	-46
159	4	15	19	-9
157	3	15	16	7
157	8	18	0	16
157	5	24	4	22
157	4	19	9	28
157	6	18	2	27
158	3	19	8	26
157	3	17	18	29
157	4	19	16	23
158	1	21	16	17
157	1	22	13	17
158	5	22	7	15
158	5	21	5	20
157	3	22	-1	27
158	4	23	-11	28
157	4	19	-9	29
157	4	19	0	15
157	1	17	-8	-1
158	5	18	-13	0
157	5	17	-10	8
158	5	11	-15	2
158	4	16	-8	1
158	5	17	0	2
157	5	15	25	4
157	3	19	52	4
158	5	18	54	-4
158	5	17	26	-4
157	7	15	3	-4
158	5	20	14	-1
157	4	17	5	1
157	5	19	1	2
158	5	22	12	4
157	6	22	23	0
158	4	25	29	0
158	7	15	-8	2
158	4	17	-35	-3
158	5	18	16	-13
157	4	13	28	-7
158	5	16	-17	1
158	8	18	-11	3
158	8	16	-6	1
158	7	17	22	2
157	5	17	35	4
157	5	17	7	-3
158	5	18	-44	-5
157	7	19	-48	-8
158	3	21	18	-9
157	4	21	7	-3
158	4	22	5	-6
157	9	20	13	-2
158	11	22	2	-1
158	5	17	15	0
157	5	21	7	0
158	3	19	14	-2
157	-2	17	6	1
158	0	20	10	0
158	4	17	20	-4
158	6	16	31	-9
157	4	17	39	-6
158	2	16	5	-3
157	6	19	-16	8
158	6	21	4	8
157	5	14	19	6
158	2	17	-3	12
157	4	17	4	11
157	4	19	4	13
158	7	21	8	6
158	10	18	7	0
158	10	21	-4	-2
158	7	18	8	-7
158	5	17	0	-1
158	6	17	13	-5
157	5	19	21	-5
157	3	21	14	12
157	2	18	7	17
157	3	19	-7	9
157	3	19	-1	12
158	5	19	25	7
156	8	20	30	-12
158	10	21	-6	-37
157	7	22	8	-47
158	8	17	18	-52
157	4	15	8	-55
158	4	16	12	-28
157	6	15	-1	-3
158	6	19	4	6
157	4	18	15	14
157	4	21	14	17
157	5	22	2	25
157	5	14	-4	33
158	7	14	-3	31
158	5	19	5	29
158	4	17	7	35
159	5	22	10	37
157	4	21	13	33
158	5	17	3	33
157	5	18	13	11
157	5	19	20	-6
158	5	17	13	-13
157	1	15	4	-32
158	2	14	-8	-27
157	3	17	21	-14
158	5	18	29	-14
157	5	18	-7	-2
159	5	19	-3	-6
157	3	18	10	-3
159	3	15	-9	4
158	5	17	-12	2
158	4	16	8	11
158	5	17	-7	15
157	5	21	-8	9
157	3	21	4	1
157	3	18	4	9
157	3	18	16	6
157	1	18	24	6
157	4	19	29	6
158	5	24	8	1
158	4	19	-17	7
157	5	19	-1	7
158	5	15	15	3
157	4	14	17	2
158	8	18	15	4
158	5	14	4	8
157	7	14	-1	10
157	3	15	-7	2
158	4	19	-7	-4
157	3	17	-3	2
158	3	19	-3	-2
158	5	18	2	-5
157	5	18	19	-1
157	7	19	46	-1
157	5	20	56	1
157	4	22	28	2
157	2	18	5	0
158	3	15	6	-3
157	5	18	5	-6
157	4	15	10	-5
157	6	15	6	-5
158	5	18	0	-5
157	7	17	4	3
157	6	20	12	3
158	7	19	21	-4
157	8	13	18	5
158	5	14	23	13
158	8	14	16	13
157	3	15	-27	17
158	7	16	-40	7
157	5	15	-4	-6
157	4	16	-1	-9
158	7	18	-23	-9
158	5	19	-16	-6
158	8	19	-1	-4
157	7	19	15	-4
157	5	19	34	2
157	7	21	26	7
158	8	21	14	6
158	3	17	23	4
158	5	18	28	12
157	7	19	23	8
157	5	23	20	-6
158	5	22	10	-6
157	7	19	-4	-13
158	6	17	-5	-10
157	4	18	-7	1
159	4	19	-10	0
157	4	18	-34	-4
157	3	22	-33	-7
158	2	23	17	-10
157	1	19	21	-5
158	3	17	1	-6
157	3	21	5	0
157	5	21	20	9
157	7	19	49	16
158	4	17	43	22
158	2	14	-6	16
158	3	15	-35	10
158	4	14	3	0
158	5	20	6	-4
158	11	19	2	-25
157	10	19	25	-26
157	8	20	21	-8
157	2	16	23	-4
157	3	19	-16	10
157	8	18	-24	12
158	3	18	5	13
158	4	19	5	12
157	7	19	13	7
157	4	18	13	9
158	4	16	11	5
157	7	18	6	-3
158	4	19	9	-6
158	10	21	15	-11
157	15	19	10	-7
158	9	21	-2	-6
157	5	18	-11	4
157	0	12	13	14
158	-2	11	28	7
157	-2	13	25	7
157	1	14	21	7
157	5	17	4	10
158	3	17	0	3
158	1	17	-11	-3
158	-1	19	-11	0
157	0	19	-10	3
158	1	17	-11	7
157	4	15	18	9
157	6	17	47	12
158	5	18	57	9
158	5	20	30	3
157	4	19	14	4
157	7	23	15	2
157	7	18	13	2
157	3	14	14	6
157	4	15	12	-1
158	3	17	23	-4
158	6	21	21	-5
157	8	23	14	-1
157	5	19	-5	14
158	4	19	-10	15
157	1	15	9	4
157	1	14	-28	4
158	5	21	-46	1
158	6	21	-15	-3
157	8	21	-6	10
158	8	23	0	12
157	3	19	8	10
157	6	23	6	5
157	7	22	8	-14
157	4	22	14	-36
158	7	19	8	-44
158	9	11	6	-15
158	5	10	13	-9
158	4	14	13	-16
157	4	14	-4	-1
157	5	20	-12	11
158	6	23	-5	15
157	8	18	-8	16
157	8	21	-6	18
157	8	23	-3	7
157	8	19	31	-5
157	4	17	70	-4
158	4	13	61	-5
157	4	19	23	-7
158	4	19	-5	0
157	4	18	4	-3
157	4	21	23	-14
157	5	21	4	-11
157	5	22	-19	-16
158	5	15	-16	-11
157	4	13	-12	-2
157	5	17	5	0
157	5	16	53	0
158	4	16	24	13
157	6	20	-40	20
158	8	18	-7	21
157	5	18	-13	26
157	8	19	-23	24
157	5	19	7	14
157	5	16	6	3
157	5	18	29	-2
157	8	15	16	-2
158	5	16	3	15
157	4	17	13	27
158	4	17	16	19
157	5	19	18	15
157	7	17	16	1
158	4	19	23	-8
157	6	15	15	-10
157	4	15	17	-22
157	4	18	12	-36
158	4	21	8	-38
157	7	23	1	-28
157	8	19	-15	-16
157	5	17	-13	-1
157	4	14	-8	2
157	3	15	-8	-1
157	3	19	-6	-3
157	3	17	-2	10
158	1	18	13	13
158	1	20	26	19
157	3	19	25	24
157	5	17	8	16
157	5	18	-3	11
157	11	17	-4	9
157	8	19	-7	1
157	8	19	3	-3
157	8	17	-3	10
157	6	18	0	7
157	4	17	15	3
157	6	17	2	6
158	7	17	5	6
157	7	18	9	9
157	8	17	10	3
157	8	15	36	-1
157	7	19	49	2
158	4	23	38	2
158	5	21	34	4
158	4	19	33	4
157	1	24	15	-2
158	2	22	1	-1
157	3	22	-11	-4
158	3	22	-1	-6
158	4	17	4	-4
157	3	21	-24	-1
158	3	19	9	-2
158	7	19	18	3
158	5	20	6	7
157	4	18	16	9
158	4	18	0	21
157	1	18	10	23
157	2	17	8	25
158	3	15	8	19
158	3	17	-4	13
157	3	17	-30	-1
157	3	21	-17	-15
157	4	18	0	-19
158	4	17	2	-10
158	6	16	-6	-4
157	8	16	-1	-15
157	9	18	1	-16
158	5	17	16	-22
158	2	13	24	-26
157	2	14	14	-18
157	7	17	7	-21
157	9	16	9	-18
158	5	14	2	7
158	1	17	3	10
158	1	22	17	5
157	0	18	13	0
157	3	18	2	-16
157	7	19	-6	-12
158	6	18	5	-4
157	3	19	13	-1
157	5	22	6	6
157	6	21	13	11
157	5	18	25	11
157	7	16	41	11
157	8	16	39	10
158	7	18	25	8
158	7	21	13	15
157	9	19	1	15
157	7	19	-9	23
158	8	19	-25	28
158	7	17	-13	23
157	5	18	42	27
157	3	19	58	25
158	2	15	17	16
157	4	15	-41	12
157	3	17	-70	0
158	5	16	-14	-9
157	10	19	16	-17
157	7	17	17	-27
157	4	17	20	-27
157	7	19	1	-32
158	6	19	8	-16
157	7	21	1	-7
158	4	19	4	-4
158	5	18	3	1
157	4	18	4	0
157	4	18	20	6
158	5	18	30	8
158	5	18	38	8
158	5	19	18	7
157	6	21	-19	5
158	7	22	-16	0
157	5	19	5	-5
158	3	20	0	-3
157	2	16	4	1
157	5	16	10	5
157	4	18	20	9
157	1	18	15	6
157	5	19	8	1
158	7	19	14	6
158	4	17	8	6
157	5	14	10	9
157	6	17	8	3
158	4	18	6	0
158	3	20	9	5
157	7	17	8	2
157	5	13	-8	-1
158	3	17	-21	2
158	3	20	-6	3
157	6	15	10	3
157	4	17	9	12
157	1	15	13	14
157	3	15	15	15
158	2	16	10	9
157	5	16	2	3
158	9	19	-4	-7
157	6	21	12	-16
158	3	21	24	-16
157	3	22	22	-8
158	5	23	13	-5
158	7	17	0	-1
157	8	13	-8	-1
158	5	14	-5	-8
157	4	18	14	1
157	5	16	17	-2
158	3	17	14	-8
158	4	19	12	-10
158	6	19	1	-15
158	8	17	8	-11
157	5	16	7	4
158	4	20	11	11
158	7	18	17	15
158	4	17	17	20
157	6	15	25	15
158	7	17	22	13
157	5	18	16	0
157	3	19	-22	-1
158	8	21	-32	4
157	6	19	8	10
157	6	15	9	13
157	6	19	2	4
157	3	17	6	5
158	1	14	4	2
158	0	13	6	-8
158	3	16	15	-12
158	8	19	29	-20
157	7	17	22	-30
157	9	18	2	-30
157	10	18	-18	-4
157	5	23	1	3
157	4	19	26	4
157	4	21	4	10
157	9	24	-17	12
158	10	24	-7	14
157	4	22	23	13
158	3	18	22	12
158	2	17	15	12
158	3	23	17	17
158	3	22	26	14
157	4	19	-13	13
157	6	21	-41	4
158	5	21	0	-18
157	5	20	-10	-28
158	5	19	-4	-38
158	5	13	4	-33
158	7	18	9	-14
158	7	19	14	-1
158	2	14	9	12
158	2	17	21	17
157	4	20	1	19
157	5	19	2	24
158	5	17	-5	17
158	5	18	21	11
157	4	20	39	15
158	4	19	8	14
158	3	15	15	10
157	3	15	15	7
157	7	19	10	0
158	5	18	9	-9
157	3	19	6	-8
157	7	18	7	-5
157	3	17	7	-7
158	1	18	12	-2
157	8	18	13	-4
158	9	18	15	-3
158	7	20	8	-6
157	5	16	1	-14
157	6	19	9	-8
158	8	24	9	1
157	7	21	9	6
158	4	22	7	6
157	5	18	-5	10
158	4	16	0	12
157	4	19	21	9
157	3	21	16	11
158	1	19	-21	10
157	5	19	-42	15
157	4	15	-19	9
158	3	20	-6	-11
157	5	19	-1	-9
157	6	11	11	6
157	5	11	7	1
158	5	16	15	-6
157	7	18	26	-2
157	5	18	41	-1
157	5	19	28	4
157	4	17	14	4
157	1	17	19	7
158	3	14	10	6
158	7	16	9	4
157	11	15	4	3
158	6	13	10	6
159	3	17	15	5
157	0	17	11	-4
158	2	19	8	-4
157	2	19	2	-7
158	2	19	7	-6
157	5	17	10	-2
157	5	19	18	-1
157	7	21	9	0
158	5	18	-7	5
158	5	22	-20	9
157	5	19	-13	0
158	5	17	-2	-3
157	3	17	-9	-4
157	3	14	13	-4
157	1	18	10	2
157	4	19	2	14
158	6	18	10	19
157	2	19	-3	18
157	0	18	-3	22
157	3	14	-8	15
158	4	17	3	4
157	5	17	12	-16
157	11	21	18	-23
157	15	22	32	-24
157	10	19	34	-25
157	4	18	23	-21
157	5	19	-13	-18
157	6	18	-26	-12
158	5	19	10	-14
157	2	22	13	-9
158	4	22	-1	3
157	2	19	16	8
157	4	16	6	10
157	6	21	14	12
158	4	18	23	13
157	7	17	20	14
157	9	20	20	14
157	6	19	12	13
157	4	21	7	12
157	6	18	-15	15
157	4	15	-38	10
158	3	15	-11	8
157	5	17	34	7
157	5	17	8	4
158	3	20	1	2
158	5	20	36	-1
157	8	16	48	0
158	7	20	19	-5
158	11	22	-43	-4
157	9	20	-25	-1
158	5	19	7	1
157	5	19	5	3
158	4	19	19	6
157	7	19	0	9
158	8	22	-6	0
157	6	19	13	3
157	3	19	5	5
157	3	22	10	9
158	4	20	29	16
157	4	19	25	19
158	3	14	13	11
159	2	13	-13	2
157	4	15	-8	-5
158	3	13	10	-24
157	-1	14	-10	-32
157	-1	17	1	-37
157	-2	17	9	-30
158	-1	19	8	-18
158	1	15	12	-8
158	3	15	21	-1
158	4	19	44	-1
157	17	20	61	6
157	18	18	53	6
158	5	21	17	3
158	9	19	6	-2
157	17	17	-12	4
158	14	18	-18	7
157	8	22	5	4
158	1	22	6	12
158	3	14	3	14
157	3	16	2	22
158	2	17	17	19
157	2	15	33	15
158	0	15	24	7
158	2	15	-25	10
157	5	18	-47	21
158	5	22	-7	11
158	6	22	-7	15
158	5	21	-6	10
158	3	22	-3	10
158	4	16	-12	9
158	7	18	-3	6
157	8	20	4	-8
157	11	17	3	-28
157	5	18	-3	-33
158	4	17	8	-42
158	4	15	13	-21
157	2	18	18	-5
157	4	19	18	-4
158	4	18	23	7
158	2	22	24	13
158	0	15	10	10
158	0	14	13	9
158	2	21	14	10
157	3	17	12	17
157	3	15	10	14
157	1	17	13	9
158	-1	17	14	9
158	2	18	6	5
157	4	19	6	2
157	9	21	15	-4
157	14	17	18	-11
157	15	14	-1	-19
157	8	19	-26	-21
158	8	23	-13	-34
157	1	21	5	-27
157	-1	18	-5	-5
159	0	20	5	-2
158	4	15	12	6
158	9	17	16	9
158	7	22	13	11
157	5	22	12	15
157	3	19	23	11
158	5	16	17	11
157	5	19	13	6
157	2	18	21	6
158	3	17	33	5
157	4	15	27	6
159	4	14	-7	11
158	4	14	-17	11
158	3	17	9	3
158	4	19	12	2
158	4	17	1	-4
158	3	18	-32	2
157	8	19	-37	12
157	3	14	4	15
158	4	17	-4	15
158	9	17	6	8
158	7	18	12	9
158	8	21	6	5
157	6	19	1	6
158	3	15	-19	7
158	5	19	-4	-1
158	4	18	33	1
157	3	17	41	2
157	5	22	23	-2
158	5	23	28	-6
158	7	24	10	-4
157	8	18	1	12
157	5	11	4	9
158	5	15	0	-1
158	2	21	10	2
157	3	18	16	7
158	5	19	38	4
158	4	12	10	4
157	6	14	-28	9
158	8	18	10	11
157	4	12	14	14
158	4	18	-18	0
158	8	23	-6	-11
158	7	22	-4	-20
158	5	20	-14	-30
158	4	18	-3	-33
157	3	19	23	-27
158	3	18	48	-22
157	3	18	40	-9
158	3	22	10	3
157	8	22	7	0
157	5	18	12	4
157	4	18	5	6
158	3	21	-1	10
158	5	21	-2	10
158	5	19	7	4
158	7	19	10	13
158	8	22	10	16
158	8	21	9	19
157	7	19	6	18
158	2	17	-2	11
157	4	19	-13	3
158	2	19	-8	-4
158	4	19	-2	-15
158	7	19	5	-18
157	5	16	14	-3
157	5	19	19	9
157	4	21	20	6
158	7	22	8	9
158	7	20	6	4
157	3	14	21	0
157	3	19	10	4
157	5	21	0	1
157	3	14	9	-2
158	1	17	13	-4
157	4	15	21	7
157	3	16	27	7
157	4	19	8	7
157	3	18	-9	14
158	8	19	10	4
158	10	15	8	2
158	8	10	-26	-2
158	6	16	-19	-21
158	8	21	1	-23
158	5	18	5	-14
158	4	20	18	-16
158	8	20	16	-9
157	4	21	11	0
157	8	15	5	4
158	8	7	1	16
158	5	14	25	11
158	4	14	31	6
158	8	12	6	6
157	9	14	-18	0
158	6	17	-9	0
157	-1	17	5	2
158	-5	18	4	-1
157	-8	18	18	0
157	-3	22	13	6
158	2	23	9	1
158	1	22	10	6
158	9	24	4	10
157	16	25	1	2
157	13	22	-7	3
157	5	22	-2	4
157	8	21	1	6
157	5	15	4	7
158	3	17	10	-1
157	6	19	14	8
157	1	17	23	11
157	2	18	26	6
157	2	15	25	2
158	1	18	14	0
158	4	20	2	0
158	6	22	-2	0
157	5	21	-14	-3
157	5	21	1	2
157	4	21	40	4
158	6	21	23	4
157	7	20	-7	2
158	5	20	-19	-2
158	5	17	-11	2
157	3	18	6	-3
157	6	15	10	-4
157	5	15	30	-5
158	5	17	32	-2
157	9	18	19	3
157	7	21	11	0
158	7	16	8	2
157	7	19	6	1
158	5	18	1	-3
158	3	14	5	-5
158	3	15	2	-2
157	5	17	-9	0
157	6	17	-7	0
157	5	17	5	1
158	3	18	6	4
157	2	18	15	5
158	4	20	22	3
158	6	18	14	11
157	7	20	3	18
158	1	17	-19	14
158	0	13	-39	8
157	0	15	-44	17
158	3	16	-22	11
158	5	14	24	6
157	6	16	48	2
158	8	19	55	-16
158	9	19	29	-26
159	8	21	11	-16
157	8	19	13	-9
158	8	21	4	-13
158	6	17	10	-7
158	7	15	15	-3
157	5	17	28	0
157	2	17	35	2
157	5	14	7	4
158	5	15	-31	18
157	5	17	-5	6
157	7	19	17	-5
158	5	23	3	-13
158	4	24	21	-21
157	8	23	5	-6
157	3	16	0	9
157	3	14	0	2
158	5	18	12	2
158	3	19	9	9
158	4	22	-15	14
157	0	19	3	19
158	-2	14	8	14
157	2	20	-10	9
157	5	22	-20	2
158	6	20	-15	-1
158	8	22	5	-4
157	13	23	19	-7
158	7	22	12	-2
158	5	18	15	-1
158	8	14	14	2
156	8	15	9	4
157	8	19	13	6
157	3	18	11	2
157	3	17	12	4
158	3	18	10	6
158	1	14	8	0
158	1	18	3	2
158	2	21	10	2
157	6	20	16	5
157	5	19	21	6
157	4	16	23	-2
158	4	16	4	2
157	7	17	-7	3
157	7	17	4	0
158	6	17	5	2
158	7	21	1	4
158	3	19	4	4
157	4	18	5	10
157	3	19	18	7
157	0	18	31	7
157	-2	22	10	4
158	0	22	-7	-1
157	3	19	9	-1
157	4	19	6	-4
157	16	23	-26	-7
158	24	24	-22	-8
158	16	21	-4	-5
158	10	18	15	-5
157	10	13	17	-12
158	5	21	10	-10
158	3	21	30	-5
158	0	22	18	2
157	1	21	10	8
158	3	19	12	8
158	2	19	9	6
158	1	17	14	4
157	3	18	7	3
158	1	19	9	5
158	1	15	2	10
157	2	15	4	11
157	3	16	-4	10
158	4	15	-3	9
157	1	18	4	7
157	4	17	1	0
158	5	18	0	-4
158	4	19	14	-8
158	4	19	29	-13
158	4	19	18	-15
158	8	18	20	-19
158	7	14	19	-14
158	4	9	13	-4
157	3	14	26	0
158	3	14	16	6
158	5	15	-3	10
157	5	17	-12	12
158	7	15	-6	16
157	3	20	-10	9
157	2	18	-13	11
158	2	16	-9	17
157	4	19	-2	14
157	4	14	1	13
158	7	16	0	10
158	7	22	8	6
158	8	22	7	-7
157	7	23	19	-13
158	1	21	36	-8
159	1	17	40	-16
157	1	17	-2	-18
158	7	18	-54	-9
157	6	19	-20	-10
158	7	21	24	-7
157	5	20	17	-6
158	6	19	22	-6
158	7	21	8	-6
158	7	21	0	-4
157	8	20	6	2
157	8	19	6	4
158	4	19	10	10
157	7	17	11	14
158	8	17	17	18
157	5	18	21	15
158	6	19	27	12
158	8	18	21	9
158	5	16	4	11
158	5	21	-3	7
158	5	21	23	-1
157	5	20	16	-3
157	5	18	-12	-1
158	6	18	-33	4
158	7	22	-25	1
158	2	16	28	-6
158	4	18	36	-2
158	9	18	7	-2
158	8	17	-7	-3
158	7	17	8	-3
157	8	18	8	6
158	7	18	16	13
157	4	16	16	17
158	3	16	2	13
157	1	14	1	13
157	7	16	-7	10
157	10	17	9	3
157	7	21	10	-3
157	7	19	9	-10
158	7	21	10	-3
157	3	18	8	-7
158	5	19	9	-2
158	3	18	12	-2
157	2	17	22	-1
158	3	19	15	6
157	5	18	17	11
157	3	17	11	11
157	1	16	4	-1
158	1	18	15	-5
158	4	18	-2	-9
158	5	17	-7	-15
157	3	18	-12	-16
158	2	18	-26	-12
158	1	14	13	-10
158	4	16	30	-9
157	6	17	13	-1
157	4	17	13	1
157	4	20	13	1
157	11	21	21	1
157	11	21	21	0
158	10	21	6	6
158	5	18	4	7
158	6	19	7	6
157	4	17	8	12
158	5	15	2	13
158	10	17	-2	14
158	7	16	0	5
157	4	15	6	6
157	3	19	4	8
158	4	19	5	7
157	5	21	12	13
158	4	18	15	10
158	3	14	8	10
158	0	17	-11	17
158	3	18	-10	14
158	7	23	-1	14
158	8	19	27	9
158	4	17	41	-9
158	3	16	13	-22
158	7	19	2	-34
157	5	19	17	-33
157	3	15	3	-30
157	4	22	-24	-35
158	2	18	-9	-23
158	3	19	1	-6
158	4	22	-8	2
157	5	20	-3	4
157	3	18	-3	10
158	3	17	1	13
158	5	18	7	14
158	4	15	16	17
158	2	15	21	14
158	3	17	22	16
157	4	18	26	13
157	7	20	26	11
158	8	18	21	12
158	5	17	20	3
158	5	19	21	-5
158	3	18	21	-8
158	4	15	-3	-5
157	5	13	-45	0
157	3	15	-22	-2
158	1	17	1	-6
157	4	19	-19	3
158	5	19	-3	4
158	6	19	-10	2
158	8	22	3	4
157	10	18	16	7
157	3	13	14	11
158	3	11	13	11
158	-1	8	-4	8
157	-3	11	29	-1
157	-5	17	58	1
158	2	18	49	1
158	13	24	23	-5
158	12	26	10	1
158	19	28	16	0
157	17	29	8	-12
158	8	26	5	-11
157	3	23	1	-11
157	5	21	-7	-12
158	4	20	-9	-4
158	5	17	-8	11
158	6	16	-4	16
157	3	13	8	15
158	3	18	8	14
157	4	19	-12	8
157	5	17	16	1
158	5	19	24	5
157	8	15	10	8
157	8	12	15	9
158	5	13	-2	8
157	5	17	-9	2
157	3	14	-12	0
158	0	11	15	-1
157	2	17	39	-12
158	5	22	18	-14
157	8	24	-21	-5
158	9	26	-44	4
157	10	26	-9	4
157	5	19	10	0
157	3	18	5	-7
157	2	19	21	-12
158	3	19	19	-5
157	5	15	5	13
158	3	17	8	21
158	0	16	29	19
157	3	15	24	20
158	7	19	19	7
158	9	17	7	-10
158	7	18	-8	-17
158	7	22	5	-17
158	4	19	8	-21
158	5	21	1	-8
158	6	21	1	-2
157	4	17	-1	0
158	4	17	7	8
158	2	14	1	9
158	2	13	-6	19
158	3	13	-1	15
157	7	14	1	10
159	8	17	16	-1
158	5	20	25	-15
158	4	19	13	-18
158	1	19	7	-10
157	3	17	16	-6
158	5	16	32	-7
157	7	22	38	2
158	11	22	28	0
157	10	19	22	-11
158	3	19	16	-23
157	4	17	1	-31
157	5	17	-13	-15
158	5	18	-15	4
158	3	19	-7	10
158	4	20	13	19
158	3	22	33	18
157	1	18	31	14
157	3	15	-15	18
158	3	10	-33	14
158	5	12	6	7
158	3	13	-2	12
158	5	19	-9	11
158	3	22	2	10
157	4	19	-8	12
158	3	15	1	11
157	5	13	-7	8
157	9	19	-5	1
156	7	21	-4	12
157	5	20	5	19
157	7	22	13	23
158	4	21	20	22
157	8	21	41	11
157	7	17	58	10
158	3	12	50	8
158	6	19	-23	6
157	8	22	-37	-14
158	9	21	2	-19
157	10	24	12	-14
158	7	17	26	-17
157	7	19	19	-15
158	5	19	29	-15
157	4	17	28	-9
157	5	20	1	-8
157	5	21	-30	-6
158	7	22	-12	-5
158	9	17	27	3
158	12	21	9	8
158	6	22	18	5
158	1	20	13	6
158	-4	17	8	-2
158	-7	16	10	-1
157	-5	17	-2	2
157	2	19	-6	2
157	4	21	-14	6
157	8	22	1	4
157	14	22	12	-2
158	11	18	12	4
158	5	16	19	4
157	8	19	14	-4
157	4	22	2	-2
157	8	23	5	-3
158	7	23	13	4
158	4	18	29	8
158	4	17	44	8
157	4	19	18	3
158	1	13	-37	4
157	3	11	-59	1
157	4	15	-42	-2
158	5	18	-18	2
158	8	17	9	12
158	7	17	5	10
158	3	17	3	2
158	3	18	6	11
158	1	14	12	12
158	4	15	13	11
157	5	19	9	14
158	8	19	21	18
157	5	17	13	15
157	4	20	17	-13
157	7	16	29	-33
158	6	19	38	-52
158	8	18	38	-63
158	5	15	19	-43
157	5	17	-9	-15
158	3	17	-10	-14
158	4	16	7	-10
158	1	16	2	-3
157	3	15	12	-3
158	3	18	5	3
157	4	21	0	2
157	1	17	1	7
158	1	15	0	13
158	1	15	24	17
157	1	15	26	22
157	2	14	15	22
157	3	16	13	18
157	5	20	11	11
157	3	22	9	15
158	9	24	5	16
157	10	25	4	8
157	11	25	7	6
157	15	22	15	14
157	10	13	33	14
157	6	12	30	6
158	7	21	-19	4
157	6	19	-19	13
158	7	17	6	25
158	7	15	6	20
158	5	18	20	13
157	2	19	5	6
157	4	19	-8	3
158	5	22	-16	1
157	4	14	-2	-4
158	5	19	12	-9
157	5	20	-1	-18
158	5	19	2	-19
157	5	23	-9	-15
157	5	20	-27	-14
158	4	21	-27	-6
158	5	19	24	-4
157	1	20	67	-9
157	3	16	53	-6
157	3	17	15	0
157	5	20	6	6
158	8	15	39	0
157	4	10	9	-2
158	7	16	-15	-2
157	10	24	-9	2
158	8	18	0	12
158	5	21	-10	10
158	1	18	-16	8
158	3	16	-2	7
158	4	19	-7	9
157	5	19	9	15
157	9	19	10	15
158	5	17	25	8
158	3	18	19	-3
157	5	19	-7	-11
158	5	22	-17	-18
158	6	21	-3	-30
158	5	19	13	-23
157	2	18	10	-10
157	2	16	24	-9
157	3	22	13	2
158	5	20	16	17
157	4	20	13	25
158	5	19	3	18
158	2	15	5	27
157	4	14	-5	30
158	5	19	-6	26
158	7	17	-6	25
157	3	16	2	14
158	5	19	16	3
157	7	18	21	-21
157	5	18	17	-41
157	8	18	8	-50
157	9	18	3	-54
158	4	17	17	-38
157	3	22	21	-15
157	-3	22	20	2
158	-1	21	22	8
157	5	19	13	8
158	5	13	10	9
158	7	14	20	11
157	5	17	28	16
158	3	15	5	12
157	3	16	-30	12
158	7	19	-25	12
158	7	18	1	9
157	7	15	1	12
158	3	16	7	10
157	4	17	20	9
158	2	15	14	8
157	1	17	5	7
158	-1	18	-11	2
158	1	19	-12	8
158	3	23	-3	11
158	7	23	4	12
157	16	22	15	20
158	20	19	16	15
157	12	18	21	10
158	9	21	17	0
158	9	21	6	-6
158	7	19	22	-1
157	7	15	29	-1
158	4	21	-5	0
157	5	19	-20	12
158	5	13	-2	14
158	0	7	-13	11
158	2	14	-18	10
157	3	21	6	4
157	0	18	1	-2
157	3	16	4	-10
157	3	17	20	-12
157	5	17	26	-12
158	8	19	31	-13
158	11	22	10	-16
157	6	14	21	-22
157	1	17	43	-22
158	6	23	-6	-16
158	8	21	-5	-8
157	8	22	19	-5
158	5	19	6	4
157	6	21	12	3
157	7	22	-1	6
158	4	19	-3	15
158	1	19	2	10
157	1	19	9	8
158	5	19	10	4
158	4	20	1	2
158	1	17	15	2
158	3	18	29	7
157	5	15	48	8
157	4	14	33	8
157	5	16	-36	12
157	8	15	-34	7
157	1	10	-3	10
157	3	13	-24	7
158	5	17	14	2
158	2	16	9	3
157	8	19	0	-2
158	6	21	5	-1
158	5	17	-6	0
157	5	19	7	-5
158	5	22	-3	2
157	6	18	15	-3
158	6	18	8	-6
158	6	19	10	-5
157	5	18	17	-5
157	2	19	12	-4
157	2	19	19	-4
158	3	20	19	-2
158	5	24	21	-2
158	8	22	18	-4
157	7	17	11	1
158	5	17	-3	15
158	5	15	1	14
157	5	16	9	9
157	10	16	3	4
158	9	16	9	0
157	8	19	16	0
157	8	17	24	-5
158	4	18	13	-11
158	1	19	-19	-1
158	3	19	-16	9
157	3	19	22	13
158	4	19	22	18
158	7	17	12	8
157	4	16	5	7
158	4	12	-10	-6
158	1	17	-25	-21
157	3	19	-22	-33
157	3	15	8	-24
157	3	15	2	2
157	1	22	12	7
158	1	22	17	14
157	3	22	12	10
158	3	23	5	9
157	8	19	-2	11
157	5	19	10	6
158	4	19	6	-1
157	5	19	0	-11
157	6	22	0	-13
157	6	18	6	-11
157	5	17	13	-12
158	5	17	18	-9
157	5	16	18	0
158	6	19	13	4
157	4	21	15	12
158	5	19	3	17
158	5	19	7	11
158	9	20	15	12
158	5	14	20	11
158	1	13	21	3
158	0	14	11	0
157	-3	15	-2	0
158	1	21	-10	10
158	12	19	4	13
158	20	22	5	5
158	11	22	5	8
158	3	21	4	9
158	7	20	3	8
158	4	17	20	6
157	5	15	19	-3
158	7	19	20	-7
158	7	17	17	-8
158	8	17	4	-7
158	3	19	-5	-10
158	10	23	0	-14
157	14	19	4	-13
157	10	19	-7	1
158	5	20	-15	9
158	7	22	7	9
157	3	21	43	10
158	2	16	3	8
158	3	18	-16	6
159	3	15	26	-1
157	3	15	18	0
158	3	20	-2	4
158	4	21	10	6
157	3	21	12	-2
157	1	19	-4	-5
158	5	13	-36	-1
157	3	12	-43	3
158	3	14	17	4
158	3	18	50	6
157	5	19	54	8
157	4	17	58	9
158	2	15	40	4
158	2	14	9	4
158	2	18	-20	7
157	3	19	-3	-3
158	0	12	13	-2
158	0	14	20	0
157	4	19	24	-1
157	4	23	5	-5
157	5	21	-10	-6
157	5	12	-26	3
157	9	13	-16	3
157	8	19	0	1
158	9	22	-1	-4
158	7	19	-3	1
158	5	19	1	3
158	7	19	10	-1
157	3	19	-9	-2
158	1	21	-14	-4
158	2	21	-1	4
158	7	15	10	-2
158	8	17	12	-9
158	7	19	16	-5
158	3	19	13	3
158	4	21	3	13
158	5	19	12	15
158	5	17	10	19
157	5	18	9	14
157	7	21	13	0
157	5	17	15	-14
158	6	17	22	-27
157	4	18	19	-34
157	5	15	17	-22
157	5	15	5	7
157	5	19	-3	13
158	5	22	7	9
157	0	17	10	9
157	2	15	16	11
157	3	16	6	10
157	6	19	0	4
158	5	19	-1	0
158	8	20	-7	0
158	7	22	-1	-1
158	8	24	8	4
157	9	22	25	12
158	1	18	30	4
157	3	17	36	-5
158	5	17	35	-10
157	4	19	0	-8
157	4	22	-45	-6
158	3	21	-42	0
158	3	18	-3	4
159	5	22	4	4
157	8	22	10	8
157	6	18	17	10
157	3	16	23	6
158	5	17	21	4
157	5	17	16	4
158	3	15	15	3
157	5	15	13	8
157	7	19	16	2
157	5	18	10	2
157	4	17	9	2
158	4	19	2	6
157	5	15	-2	4
157	3	15	2	0
157	5	16	9	0
157	3	15	20	-2
157	3	21	25	-2
158	9	22	15	-3
158	8	21	-13	4
158	9	23	-10	11
157	7	15	7	14
158	7	17	6	2
158	3	17	4	-5
157	3	8	-4	0
158	5	13	-3	-6
157	7	16	0	-1
158	6	16	-1	-1
157	5	20	2	-1
157	7	23	12	3
157	8	22	18	3
158	7	24	9	7
158	3	20	7	9
157	2	15	3	6
158	1	17	6	2
158	1	19	16	2
158	2	22	9	-2
157	3	19	6	-5
158	5	17	1	-8
158	3	19	3	-6
157	5	23	6	9
158	8	23	13	7
157	5	18	28	4
158	3	17	33	10
157	5	15	37	-1
158	6	17	-4	0
158	8	16	-41	-2
157	8	19	-2	-9
158	4	21	2	-10
158	5	19	3	-17
157	5	18	19	-11
158	5	17	10	-4
157	5	16	25	-4
158	3	14	28	2
157	3	17	41	9
157	4	18	46	6
158	3	17	5	-3
157	5	20	-63	-4
159	9	24	-81	1
157	8	18	-26	7
157	3	17	-7	11
157	3	13	10	17
158	3	13	14	16
158	1	10	19	11
157	3	16	27	2
157	7	19	18	0
158	3	19	19	-3
158	8	19	17	-7
158	9	18	25	-3
157	8	22	12	-6
158	10	23	6	-4
157	9	22	10	-8
158	8	22	10	-1
158	5	20	16	4
158	3	18	18	0
157	5	19	21	3
158	6	21	16	-2
157	5	23	16	5
158	5	23	24	18
157	2	18	22	27
157	3	12	-26	17
157	1	10	-53	22
159	3	6	-11	18
158	5	13	-2	2
157	5	18	0	2
158	4	15	20	-4
158	3	16	-1	-9
158	4	19	-12	-13
158	6	21	-10	-28
158	8	22	-8	-42
158	6	22	-15	-30
157	8	21	3	-24
158	7	15	37	-20
158	4	13	34	-5
158	5	18	24	-1
158	4	18	29	10
157	5	15	50	11
158	2	15	49	12
158	5	18	24	10
158	5	19	6	3
158	3	21	-2	9
157	8	21	1	7
157	8	21	7	12
158	6	22	6	11
158	5	19	33	12
158	4	13	14	14
158	6	17	-45	11
157	6	20	-25	9
157	5	21	4	8
158	8	23	-7	11
158	6	17	6	7
157	3	20	-7	9
159	5	19	-24	13
157	3	18	-10	0
158	3	19	2	-6
158	5	19	12	1
157	4	17	11	-6
157	5	19	10	2
158	0	18	23	2
158	3	15	29	2
158	4	18	22	11
158	5	17	16	2
157	7	21	6	3
157	5	20	-2	2
157	5	18	-4	2
158	1	19	-4	4
157	1	13	-6	8
158	1	15	-1	7
158	1	16	9	-2
158	4	17	15	-8
158	8	22	19	-9
157	11	20	23	-6
158	18	20	18	-5
158	8	16	3	-2
157	1	16	10	0
158	8	16	15	-3
157	3	22	10	0
158	5	19	6	1
157	3	17	0	-6
158	5	17	-8	-1
157	5	18	-1	4
157	8	17	37	8
158	15	12	29	9
157	13	14	-6	7
157	5	18	-15	11
158	1	18	-9	5
157	-1	16	14	2
158	-3	15	8	-1
158	0	17	10	0
158	6	22	24	3
157	5	22	26	3
157	4	22	21	-4
158	7	21	-11	-10
157	4	17	-37	-12
158	4	18	-9	-21
158	7	18	-3	-15
159	4	17	-3	-8
158	4	19	13	-3
157	8	22	10	-2
158	5	21	8	-5
157	5	22	6	-3
158	5	25	17	-4
157	7	21	13	-1
157	4	21	10	0
157	5	21	17	-1
157	7	19	10	5
158	4	18	14	7
157	2	18	16	12
158	5	16	18	8
157	5	16	12	6
157	4	18	4	8
158	8	15	3	9
159	5	17	7	7
157	7	16	14	10
157	7	13	9	6
157	4	14	2	1
158	4	14	4	-1
158	5	18	0	-6
157	5	17	-10	0
157	5	15	6	4
157	5	17	17	9
158	3	19	16	13
157	4	18	-3	8
157	8	20	-56	7
157	8	19	-42	11
158	5	15	25	3
157	2	16	72	-5
157	0	16	110	-3
158	1	19	72	-6
158	5	17	0	-5
157	8	17	-58	0
158	11	17	-17	-1
157	6	16	22	7
158	8	21	-4	6
157	5	19	19	-2
157	5	22	-4	-5
157	6	26	-1	-4
159	4	25	-2	-1
157	7	19	4	-2
158	4	17	18	0
157	2	15	17	2
158	4	18	19	3
157	4	22	1	2
157	4	21	2	11
157	5	16	3	15
157	3	15	19	9
157	1	18	2	7
157	0	16	-27	7
157	1	17	-31	-2
158	2	14	-13	-3
157	5	15	17	-3
157	9	19	10	-7
157	5	17	20	-10
157	4	19	16	-10
157	4	19	8	-7
157	3	17	14	-11
158	0	17	16	-9
157	3	17	14	-2
158	3	19	-1	-4
157	5	19	-2	-1
157	9	25	-7	2
157	18	25	-19	6
157	21	22	-29	5
158	11	22	-7	6
157	8	19	40	9
157	8	14	38	9
158	5	13	9	12
157	5	15	7	2
157	6	17	5	-6
158	3	21	10	2
157	1	22	12	8
157	0	14	21	14
158	-1	17	33	13
157	-1	23	37	6
158	1	20	32	8
158	2	19	-3	10
158	7	21	-26	3
157	10	19	-28	-6
157	8	19	-27	-5
157	7	18	-9	-9
158	4	18	20	-11
157	4	21	13	-10
158	7	19	18	-10
157	5	20	15	-5
157	4	19	-4	-2
157	6	17	12	7
157	3	19	-3	9
158	3	20	4	11
158	5	19	7	12
158	3	21	-6	7
158	4	16	2	2
157	4	13	13	-5
157	6	18	26	-1
157	9	15	28	-4
158	10	14	36	-6
157	11	14	10	-1
157	5	13	-9	0
157	3	16	10	4
158	-1	19	7	8
157	0	19	3	4
158	1	18	2	2
157	8	17	2	4
157	5	17	-3	5
157	5	20	-17	4
158	4	18	-10	7
158	5	15	0	6
158	8	14	27	4
157	5	12	44	2
158	2	15	21	4
158	-1	18	1	11
158	2	21	4	6
157	2	23	19	-1
157	5	21	23	4
157	5	17	31	3
158	10	18	48	1
157	9	19	37	-3
157	8	15	-23	0
158	12	18	-45	9
157	9	15	5	10
158	8	15	-5	17
158	7	18	-8	15
158	5	15	10	10
159	7	18	7	0
158	5	19	23	-18
157	5	21	20	-32
157	4	19	9	-28
157	4	17	-13	-26
157	7	15	-26	-28
158	3	17	-17	-6
158	5	17	-17	8
157	7	15	-3	11
157	2	16	27	7
157	1	15	28	-5
158	2	21	12	-9
158	-1	24	6	2
157	1	22	4	8
157	0	19	-4	1
158	1	18	-17	-1
158	5	22	1	-1
158	14	25	31	-1
157	17	23	16	1
157	9	21	13	2
158	7	21	23	8
157	10	22	31	13
158	7	18	46	11
157	3	18	17	6
157	4	17	-27	6
158	4	18	-32	14
158	4	18	-2	11
158	2	14	9	4
157	3	10	9	-2
158	3	13	15	0
158	2	14	20	9
157	1	15	8	12
157	1	13	-24	12
157	4	16	2	2
157	3	17	4	1
158	2	17	-1	3
158	5	19	12	-2
158	0	17	4	-3
158	3	17	17	0
157	6	21	10	6
159	7	19	0	11
157	4	19	4	13
158	4	21	16	8
157	4	20	21	1
157	1	21	16	0
158	4	22	7	-5
158	4	14	-3	-5
157	5	15	5	-7
158	8	21	3	-8
158	11	22	1	-16
158	11	24	-2	-16
158	5	23	-13	-12
159	7	18	-10	-2
158	5	20	2	8
157	5	18	9	6
158	7	19	5	8
157	5	20	3	8
158	3	17	17	8
157	4	20	43	2
157	5	19	54	-3
158	7	17	22	-4
158	8	19	6	-8
158	8	18	23	-6
158	7	17	26	-6
158	3	21	19	-2
158	4	14	-1	-1
158	1	14	6	3
158	3	17	1	7
158	2	16	-24	9
158	5	18	-14	2
157	6	17	-3	7
157	3	14	6	3
158	3	15	10	0
158	7	18	2	7
157	12	22	0	-3
157	13	22	-1	-5
158	12	19	12	4
158	9	16	29	10
157	5	19	32	10
157	3	15	13	9
157	1	19	3	8
158	5	21	4	7
157	8	17	3	2
157	8	18	1	2
157	5	16	-7	7
158	3	17	0	8
158	3	21	4	16
158	5	18	28	24
157	4	15	35	22
158	5	17	6	4
157	5	18	-13	-5
157	5	15	-10	-28
158	7	15	5	-34
157	5	19	-32	-16
157	9	22	-24	-17
157	4	17	20	-10
158	3	19	4	2
158	5	18	0	1
157	2	15	-25	6
157	3	17	-4	-1
158	5	18	42	2
157	4	14	19	-1
157	2	17	17	-13
157	4	17	20	-5
158	4	15	15	2
157	5	21	17	6
158	7	20	12	11
158	5	19	11	11
158	3	19	13	9
158	4	19	5	11
157	4	19	3	13
158	3	21	1	11
157	2	17	-4	11
157	0	15	-3	7
158	1	19	6	4
158	3	18	15	0
157	5	18	29	-1
158	8	19	27	2
158	8	21	9	-1
158	5	17	6	-1
158	4	18	3	-5
158	7	18	6	-1
157	5	21	3	-1
158	5	19	0	4
157	5	17	5	5
158	7	21	5	4
157	5	17	6	10
157	3	17	11	1
158	3	18	23	-6
158	4	17	26	-8
158	3	22	19	-11
158	7	23	21	-5
158	6	20	24	-3
158	4	15	7	5
157	5	14	0	2
157	1	18	3	-5
157	3	21	-4	-6
158	4	17	-17	-7
157	2	19	-9	0
158	3	19	13	4
158	5	18	1	15
157	6	18	-23	17
158	5	15	-14	12
157	4	14	9	10
158	3	14	9	1
157	0	18	2	-6
157	1	15	-35	-8
157	7	18	-33	-10
158	4	17	29	-15
157	5	21	51	-17
158	8	20	54	-11
157	2	20	6	-5
158	8	24	-22	-2
158	17	22	5	-1
158	13	23	6	-6
158	7	22	24	-2
158	8	15	34	4
158	7	15	21	7
157	5	17	15	12
158	5	17	10	7
158	3	17	6	2
158	7	17	-2	6
157	7	16	11	7
157	6	18	12	6
158	7	17	5	3
157	4	18	8	7
157	3	18	6	12
158	4	20	5	15
158	3	19	1	11
158	4	17	15	7
157	6	17	19	11
158	3	15	13	15
159	7	15	10	15
158	7	16	-5	18
157	5	19	-16	18
157	6	17	-20	4
158	4	19	0	-11
158	5	18	16	-18
157	3	16	-1	-32
157	1	18	6	-32
157	5	20	24	-19
157	7	18	21	-13
158	5	17	3	-4
157	2	20	-44	8
158	5	19	-14	7
158	3	19	28	5
158	4	19	10	7
158	7	17	28	5
157	6	17	22	11
158	8	17	20	17
158	5	19	12	17
158	6	20	-1	11
158	5	18	-5	6
158	5	18	-10	5
158	5	17	5	6
157	3	19	18	2
157	1	19	26	-3
158	3	20	18	0
157	2	19	3	-2
158	5	13	-8	1
157	4	10	2	-7
157	4	18	11	-18
157	5	18	28	-6
157	7	19	48	-7
157	5	22	32	-2
158	5	21	-16	7
158	5	16	-39	6
158	2	14	-15	9
158	6	23	-16	4
157	5	20	-20	-4
157	4	18	-21	-2
158	5	17	-16	1
158	5	18	19	-1
157	5	19	39	-3
157	4	15	51	-4
158	3	15	29	-1
157	3	17	-7	2
158	5	18	-22	6
157	7	17	-4	7
157	5	17	8	7
158	7	15	-7	13
158	3	14	9	15
157	4	17	26	10
158	4	18	46	0
157	4	19	29	-1
158	6	21	6	3
157	5	19	17	3
158	7	18	18	4
158	5	19	21	0
158	7	20	13	-2
158	5	22	8	7
157	4	19	0	11
158	6	20	1	7
157	5	21	2	9
157	5	21	-1	6
158	4	22	2	4
158	3	16	10	7
158	6	15	18	3
158	4	17	4	4
157	3	15	5	-1
157	0	15	8	-4
158	-1	17	3	0
158	6	20	5	-10
157	6	20	6	-13
157	8	21	4	-15
157	12	19	2	-16
157	10	21	9	-10
158	7	19	6	-8
157	5	17	-5	-10
158	9	17	-13	-7
158	11	13	6	0
157	7	17	44	-6
157	5	19	31	0
158	0	20	19	5
158	-1	24	12	0
157	3	19	-20	2
157	7	15	-18	7
157	6	15	-8	6
159	5	17	0	-1
157	4	17	6	4
158	1	15	4	8
158	3	18	5	13
157	4	16	6	19
158	1	18	8	18
158	1	13	2	8
158	1	15	11	-2
157	0	19	19	-11
158	0	22	19	-12
158	7	28	23	-12
158	19	25	1	-3
158	18	19	-26	-1
158	5	18	-15	-5
157	5	22	-3	2
157	5	18	4	4
157	4	15	12	10
158	5	15	8	12
158	5	16	20	7
158	6	18	29	9
158	1	18	45	-1
157	3	18	46	-8
157	4	17	15	-2
158	7	15	-27	2
157	3	17	-60	10
157	3	20	-25	15
157	3	17	23	10
158	3	19	14	10
157	2	17	15	-1
157	1	16	-9	-6
157	4	17	-17	-5
157	3	15	20	-7
158	4	17	26	7
158	3	17	15	8
157	5	17	-2	6
157	7	17	1	-3
157	5	14	5	-11
157	7	16	-9	-15
157	5	19	-12	-10
157	4	18	-23	11
158	5	20	5	12
158	4	21	62	7
158	4	16	71	10
157	3	19	41	3
157	8	22	16	-4
157	7	21	10	-5
157	5	20	4	-3
158	5	21	0	2
158	5	22	1	7
157	8	19	10	9
157	9	15	14	4
157	7	17	12	2
158	8	19	11	-3
157	8	18	16	-6
157	5	17	13	-6
158	5	18	8	-7
157	8	20	13	0
157	6	21	16	1
157	3	16	18	0
157	3	17	13	5
158	3	17	-4	2
157	7	15	-29	-2
158	5	17	-14	3
158	7	19	13	4
158	3	18	-11	8
158	3	17	-1	2
158	4	16	8	4
157	4	16	0	11
157	5	20	13	11
158	7	17	6	15
158	3	17	6	10
158	2	20	2	11
157	5	20	14	7
157	4	19	20	2
158	7	18	7	0
158	7	15	-8	-2
158	4	19	-14	-6
157	4	19	12	-14
158	0	15	13	-16
157	3	17	-20	-6
158	6	17	-35	-4
158	7	18	-20	-1
158	7	17	15	-2
158	2	21	22	3
158	3	21	24	7
158	3	24	24	-2
158	2	20	14	-3
158	3	13	18	6
157	2	13	27	1
158	1	11	29	-1
158	1	14	-19	-2
159	5	19	-40	2
157	10	24	1	6
158	9	22	5	6
158	7	17	8	11
158	3	19	9	10
157	2	18	3	6
158	2	17	3	1
157	5	17	-8	-1
157	1	18	7	3
158	3	18	16	9
157	8	24	20	6
158	4	23	13	6
158	9	22	10	4
157	15	23	25	3
158	16	22	25	0
157	8	21	28	-5
158	8	19	19	-5
157	6	15	17	-9
158	1	15	15	-13
157	5	18	9	-14
157	10	15	9	-13
157	12	18	15	-9
157	4	18	20	-7
157	3	17	7	-1
157	-3	17	4	2
158	-4	17	3	2
157	0	19	8	4
157	2	18	9	4
157	9	21	1	-1
157	5	19	3	1
157	5	18	4	2
158	7	17	-5	9
158	5	19	0	11
158	5	15	-5	9
157	3	15	-18	15
157	3	15	-13	14
158	0	15	7	7
158	0	16	13	-2
157	4	22	20	-5
157	5	18	31	2
157	9	17	27	4
158	13	21	13	5
158	8	19	17	1
157	5	18	37	8
158	3	14	28	6
158	3	16	-4	-2
158	2	19	-19	-2
158	7	17	0	0
158	8	18	-12	6
158	5	24	-8	2
158	5	22	4	-1
158	4	19	-12	0
157	5	18	-5	-8
158	3	18	-17	-14
158	5	24	-4	-12
158	2	24	7	-7
157	4	20	16	4
157	8	18	12	17
158	4	11	-12	22
158	5	12	2	17
157	7	19	18	4
158	5	18	30	-5
158	3	17	28	-14
158	2	17	20	-1
158	3	17	10	4
158	8	19	8	-8
157	7	19	-1	-6
157	5	14	-3	0
157	7	16	9	-2
158	4	18	5	-2
158	5	16	5	-10
159	4	21	8	-12
158	3	17	10	-10
158	4	17	-1	-6
158	5	22	-12	3
157	6	19	1	3
157	3	15	26	2
158	4	16	18	7
158	4	17	3	11
158	5	20	13	9
158	3	19	12	7
158	4	21	10	2
157	4	19	15	4
158	4	19	8	3
157	8	22	9	3
158	8	23	13	11
158	9	18	19	11
157	5	21	23	9
157	5	21	14	4
158	5	18	10	7
158	9	19	31	6
158	5	15	33	4
157	5	15	-9	1
157	2	19	-53	6
158	1	19	-37	3
158	0	16	-8	-2
157	1	18	-1	-1
157	8	21	12	-5
158	7	21	-5	-1
157	8	19	5	0
158	11	18	12	-1
157	16	19	2	1
158	10	15	6	4
157	5	14	2	7
158	1	15	16	4
158	1	18	26	-3
158	3	19	29	-7
157	3	18	1	-2
157	8	19	-1	-2
157	11	24	28	-6
158	8	23	24	-7
157	2	17	4	3
157	4	15	6	6
158	5	11	11	0
158	3	13	-18	7
157	5	17	-7	-1
157	4	13	3	2
157	5	14	-15	4
158	3	17	4	-7
159	8	21	12	0
157	12	18	-8	0
157	5	20	-26	4
157	1	19	-6	6
157	-2	19	26	4
157	0	22	41	4
158	0	22	42	0
157	5	22	19	-1
157	7	19	23	-6
158	3	20	28	-11
157	1	19	23	-12
157	-2	17	18	-5
157	1	18	4	-3
157	5	21	-4	-5
158	8	18	-26	4
158	6	15	-10	4
158	7	15	42	2
158	8	17	38	2
157	6	19	10	-2
157	9	19	0	-1
158	7	11	-5	4
158	5	11	-7	4
159	5	17	-1	5
158	8	18	5	8
157	7	19	-5	4
158	5	21	-9	-2
158	7	18	-4	3
157	5	19	-4	7
157	7	21	8	0
157	7	22	18	-1
157	4	21	14	-1
157	2	17	17	9
158	4	19	13	7
157	5	15	6	8
157	5	17	10	9
157	7	20	9	0
157	5	17	11	1
157	3	22	14	2
158	5	17	18	4
158	5	15	17	7
158	7	16	9	10
158	5	15	9	10
158	5	19	13	7
157	7	19	19	2
158	4	19	-15	0
157	4	19	-47	3
158	5	20	-18	-1
157	5	15	11	6
158	5	18	24	4
157	5	19	18	-10
157	5	19	-11	-14
157	8	21	-15	-12
158	5	15	10	-13
158	4	18	14	-14
157	3	16	17	-6
157	5	13	4	2
157	5	17	-20	5
158	4	17	9	3
157	5	16	6	4
158	5	15	13	5
158	5	15	23	6
158	4	17	13	6
158	6	20	16	5
158	5	20	6	6
158	4	22	10	10
157	1	21	12	9
157	4	20	18	6
157	1	12	5	11
157	2	9	-4	14
158	1	18	18	7
157	-3	21	42	13
158	1	17	49	13
158	6	15	2	8
159	8	21	-38	2
157	12	24	-3	-21
158	16	25	-2	-29
158	16	23	-24	-20
158	5	18	-15	-9
158	5	22	-17	-5
157	6	23	-3	-4
158	4	18	-8	-4
157	3	18	7	-8
157	1	17	42	-3
157	3	11	74	-9
157	3	15	72	-9
157	2	15	30	-3
157	4	14	14	0
157	5	17	-6	1
158	8	19	-14	-2
158	10	19	1	4
157	9	18	0	11
157	7	17	6	11
158	7	18	12	11
158	5	19	15	11
157	7	17	10	12
157	10	14	-4	12
157	9	17	1	1
157	4	21	4	1
158	-3	15	2	10
157	-6	14	-7	9
158	-8	18	-19	13
158	1	21	-5	19
158	5	17	30	22
158	5	15	11	16
157	4	24	-12	1
158	5	25	22	-3
157	6	24	2	-5
158	5	23	-18	-3
158	6	21	-4	0
158	5	22	6	-1
158	5	18	9	-8
158	5	20	10	-10
157	7	20	10	-8
157	5	20	8	-7
158	2	19	11	-8
157	5	19	16	-1
157	5	17	20	0
158	8	17	22	-3
158	9	18	5	2
157	8	17	-17	0
158	9	16	1	-3
157	7	15	2	-1
157	8	19	-3	2
157	8	20	17	6
157	9	21	10	13
157	5	22	21	10
157	1	15	25	3
158	4	14	5	-4
158	6	16	-14	3
158	8	14	-10	3
158	6	11	8	3
158	4	15	6	4
157	3	17	11	4
157	3	17	10	1
158	7	21	6	-1
158	9	21	5	1
158	3	19	4	-4
157	5	20	8	-6
157	3	21	9	-12
157	3	20	16	-9
158	2	20	18	-8
157	4	19	12	-5
158	6	15	7	5
158	4	15	18	6
157	5	14	28	11
158	4	18	14	8
157	4	17	2	6
158	5	17	1	8
157	7	18	-1	0
158	3	19	4	-2
157	1	21	11	-6
157	2	19	15	-7
157	5	19	1	-5
157	4	16	-4	0
158	4	15	17	9
158	5	15	39	9
158	0	16	35	3
157	-3	12	-27	2
157	1	15	-58	-5
157	1	15	-4	-12
157	7	17	25	-12
158	9	21	34	-1
157	5	19	27	4
158	11	25	23	0
157	16	24	13	-1
158	9	19	-21	4
158	4	21	-6	9
158	7	19	13	7
158	5	17	-5	6
158	3	18	-38	13
158	4	19	-28	7
157	5	19	13	3
157	4	20	16	6
158	6	19	24	6
157	5	14	22	9
157	2	18	17	1
158	5	19	22	1
157	5	16	27	4
157	3	15	32	8
158	8	17	0	12
157	9	19	-38	18
158	8	17	-30	20
158	5	17	9	17
157	5	16	8	7
158	5	15	0	-10
157	3	17	7	-27
158	3	17	5	-41
157	4	17	14	-23
157	2	19	23	-7
158	3	21	22	-7
157	4	15	12	-1
158	4	19	13	-4
157	8	19	21	1
157	11	19	15	10
158	8	18	16	12
157	3	18	4	1
157	3	18	-6	-6
158	6	20	-3	-1
157	7	23	-1	-3
158	4	21	9	2
158	3	19	12	2
157	5	17	16	4
158	9	15	5	11
157	11	13	-4	8
158	6	14	-1	6
157	4	18	5	7
158	1	21	12	10
158	-1	20	19	6
157	1	19	19	8
158	5	19	8	7
157	5	19	15	9
157	4	19	28	5
158	2	19	19	-5
158	3	19	-10	-2
157	4	21	-14	-4
157	4	19	1	0
158	4	24	-1	7
158	8	24	1	2
158	5	19	7	-3
158	5	15	1	0
158	7	13	-3	1
157	5	16	1	-2
157	5	19	5	-1
158	7	18	2	-4
157	8	18	2	-2
157	5	19	13	-2
158	3	18	18	0
158	5	18	11	6
157	5	18	12	1
157	5	19	10	-1
158	5	20	13	0
158	4	20	15	-1
158	0	19	14	2
158	0	19	17	1
158	1	18	-1	2
158	3	19	-19	2
157	5	22	-2	1
157	7	22	5	3
158	16	19	-8	7
158	12	19	8	1
157	4	14	7	-2
157	3	15	12	-1
157	0	15	21	-12
158	5	15	26	-11
158	2	14	39	-2
157	-2	15	13	7
157	-13	18	6	9
157	-25	16	33	-4
158	-12	9	6	-3
158	-9	13	-4	4
157	-9	17	30	2
158	5	19	19	0
158	26	23	-5	6
157	36	18	6	1
158	29	15	1	4
158	29	17	-6	6
157	24	15	-15	3
158	18	17	-35	8
158	10	27	-2	10
158	9	27	30	8
157	13	23	12	6
158	7	17	-3	7
158	5	18	5	0
158	16	24	21	-6
158	18	23	30	-14
158	10	22	18	-16
158	8	25	-3	-6
157	5	16	-9	-5
157	0	15	-7	0
157	10	21	-15	0
157	7	18	-13	2
157	-7	16	-3	2
157	-7	19	10	-1
157	-3	18	18	-3
158	-14	14	17	-2
158	-28	15	20	2
158	-22	11	23	2
157	-6	11	17	4
158	8	15	-7	3
159	17	18	-13	6
158	16	20	10	2
158	16	24	11	6
157	16	24	8	4
158	12	26	12	4
158	14	25	6	4
157	8	16	17	7
157	7	19	22	15
158	11	16	16	13
157	2	18	21	11
158	1	15	24	2
157	-1	11	22	-6
158	0	15	-14	-5
158	0	17	-40	-7
158	3	17	-9	-7
157	4	17	0	-1
158	1	15	2	-1
157	1	14	12	6
159	0	18	6	6
158	1	14	8	-2
157	1	17	14	-1
157	1	17	15	-6
157	3	18	16	-5
157	5	21	16	-1
158	3	17	8	0
158	4	18	2	-2
158	5	19	-8	-2
157	4	14	-6	1
158	3	16	-6	4
157	-7	21	8	10
158	-12	17	45	17
158	-8	17	33	25
158	1	18	14	22
158	7	17	8	15
157	9	19	9	9
158	16	20	8	-4
158	27	19	4	-10
158	21	24	6	-4
157	12	19	15	-4
158	12	19	21	-9
158	16	20	-8	-12
158	17	21	-40	-11
157	13	22	-8	-4
158	7	19	25	-4
157	4	22	5	-4
157	6	19	19	5
157	5	17	6	2
158	3	19	-3	1
157	2	17	0	-1
158	-8	15	-8	-1
158	-20	13	12	-9
157	-26	14	0	-11
157	-24	17	-4	-4
157	-7	21	11	-1
158	5	23	22	4
158	17	22	22	8
157	11	13	10	11
157	8	12	-2	9
158	26	15	8	4
158	34	17	21	6
158	28	19	15	4
158	22	19	20	-2
158	41	23	-2	7
157	44	25	-7	10
157	27	29	13	11
157	10	29	13	16
158	1	19	19	9
157	-13	18	22	6
158	-25	17	5	-1
157	-16	13	-10	-17
157	-6	17	-5	-17
157	-1	17	10	-12
158	5	17	8	-9
158	8	16	-12	-4
158	15	19	3	-4
157	12	17	26	0
158	-7	15	15	4
158	-11	13	21	4
157	-2	14	8	6
158	0	17	-3	2
158	3	17	6	-3
158	1	21	4	-1
158	14	18	6	-1
157	16	17	-3	2
157	10	22	-5	2
157	5	18	0	10
158	1	16	10	9
158	2	17	18	4
158	-3	15	-9	6
159	-2	17	-36	-2
157	-1	19	-10	-2
158	-1	19	2	-1
157	-1	18	-4	4
157	0	17	13	2
158	0	17	11	3
157	2	18	8	6
157	3	18	13	4
158	2	14	24	4
158	1	19	35	4
157	3	19	43	7
158	6	15	29	12
157	10	17	9	11
158	9	19	22	0
158	7	22	26	6
158	4	23	22	1
157	5	24	10	-6
157	6	18	5	-4
158	5	9	-15	-8
157	7	6	-28	-5
157	5	15	13	-6
157	3	15	27	-2
158	1	17	14	0
157	-2	21	31	0
157	-3	14	20	1
157	1	18	-29	6
157	9	22	-20	4
157	21	22	21	-2
157	30	23	-5	2
157	21	20	-21	0
157	11	16	0	2
158	10	15	5	4
157	5	14	7	4
157	3	17	3	-1
157	-1	21	-2	4
158	1	18	-2	6
158	6	19	8	-3
157	4	23	12	-9
157	4	22	30	-6
157	3	18	33	7
157	3	21	4	7
157	2	18	-11	14
158	1	19	8	11
157	1	21	25	11
158	3	19	8	-1
157	9	22	8	-15
158	10	17	1	-4
158	7	19	-12	-7
158	4	24	-2	-2
157	-5	21	7	-5
158	-12	23	10	-4
157	-1	17	7	-2
158	0	21	1	-4
158	2	17	4	1
158	7	15	12	3
158	10	17	8	10
157	13	14	6	14
158	14	14	13	10
157	17	15	14	8
157	14	17	10	7
158	7	18	10	7
157	-7	19	17	5
158	-6	18	16	0
158	-5	16	18	2
158	-13	19	14	1
157	-6	17	16	0
157	3	18	17	-7
157	14	19	7	-12
158	28	23	-27	-8
158	19	23	-27	-11
157	20	23	7	-12
157	41	20	0	-3
157	40	19	9	3
158	21	14	8	-1
157	10	12	-15	6
158	13	19	-18	3
157	15	19	-13	3
158	3	20	0	12
157	-9	22	10	12
158	-9	19	40	14
158	-11	17	64	6
158	-14	19	47	-2
157	-9	22	0	-7
158	8	22	5	-11
158	5	15	22	0
157	-3	7	-6	1
158	0	14	-11	1
157	0	17	-17	0
158	-5	15	22	3
157	-3	19	49	7
157	0	18	38	6
157	3	16	42	-2
158	3	11	-12	-3
157	-1	15	-62	-4
157	-2	18	-31	-2
158	-3	17	0	3
157	-1	20	-6	1
157	5	22	-3	6
158	7	22	5	0
158	4	21	-5	-1
157	4	19	0	4
157	9	22	-4	1
157	10	24	5	5
157	5	20	6	6
157	4	16	4	9
158	2	17	13	9
157	3	17	20	6
157	4	12	36	-1
157	3	17	39	2
157	5	17	35	2
158	8	18	28	4
157	6	21	20	6
157	5	19	13	4
158	8	19	-13	12
157	9	14	-30	10
157	4	11	-9	4
158	3	14	-9	3
158	4	18	-15	-1
157	4	17	8	-7
157	5	18	13	-7
158	7	19	26	-8
157	7	15	26	-9
158	5	16	25	-4
158	9	14	34	-10
158	7	17	30	-4
157	5	21	6	-2
159	9	22	-15	-4
158	3	20	-4	-1
157	-4	22	-5	0
157	-8	17	-2	0
159	-5	21	13	8
158	1	19	18	12
158	8	16	15	10
158	11	15	-8	9
157	23	15	-18	10
158	26	24	2	2
158	19	26	26	-4
158	13	24	12	-1
157	7	17	-7	-1
158	-2	15	-13	-3
157	-13	14	-12	0
158	-4	17	-7	2
157	3	17	-5	-5
157	9	18	6	-9
158	21	20	17	-4
157	25	19	15	-4
158	22	22	9	1
158	13	19	-1	4
158	4	17	-11	4
157	8	19	14	4
157	9	19	31	9
158	1	18	33	6
157	-7	22	21	1
158	-9	18	-16	-4
158	9	17	-30	-5
157	30	23	-3	-2
157	14	19	29	0
158	4	17	23	2
157	4	18	10	4
158	-8	15	32	6
158	-8	18	44	9
157	-27	15	46	11
158	-37	14	51	5
157	-14	14	43	2
158	4	11	-2	-4
157	4	13	-50	3
158	9	16	-9	2
158	17	13	1	1
158	22	19	-12	3
158	20	22	0	3
158	13	26	-16	4
158	14	28	-4	-2
157	16	27	-8	3
158	12	24	-13	8
157	4	17	-12	7
158	5	18	-3	7
157	5	13	28	8
157	3	14	28	4
157	5	15	20	-4
158	7	19	5	-6
157	4	23	5	-7
158	2	20	3	-4
158	4	19	4	-7
158	5	18	14	-7
157	2	21	22	-1
157	4	19	29	-1
157	8	16	5	3
158	12	19	-4	6
158	12	21	25	-7
157	2	14	18	-11
157	3	18	-35	-2
157	6	21	-42	4
157	5	15	4	9
157	2	17	20	10
158	3	19	23	9
157	4	16	39	13
157	4	15	28	2
157	4	17	14	-8
158	3	16	0	-9
158	1	18	-4	-11
158	-6	21	-14	-9
157	-15	18	-16	-5
158	-12	18	-10	5
158	-4	15	2	4
158	5	17	20	6
157	18	20	34	2
157	25	22	40	-2
157	27	19	36	1
157	23	12	21	8
157	14	11	-10	2
158	1	17	2	-6
158	-9	20	-15	5
158	-5	18	-27	4
158	-6	23	0	5
157	-1	25	-3	0
158	1	22	10	2
157	6	12	13	8
158	10	8	13	4
157	10	14	6	4
158	1	15	0	1
158	-23	14	5	0
158	-14	18	4	1
157	1	17	10	3
158	9	18	6	0
158	30	22	6	-1
157	51	20	3	2
157	58	23	-13	5
157	42	26	-9	2
158	27	22	24	-3
157	4	22	24	0
158	-9	24	20	2
157	-23	16	20	0
157	-42	15	-43	4
158	-27	19	-28	7
157	-13	17	23	7
158	0	20	8	7
157	-1	21	17	2
158	-4	18	28	0
158	-12	19	36	4
157	-15	17	36	2
157	-13	14	13	-1
158	-9	14	5	5
157	-2	17	12	3
157	8	16	15	7
158	33	15	12	7
158	37	19	7	10
158	14	21	12	6
157	5	19	35	-4
158	6	16	42	-7
158	15	19	18	-13
158	13	19	-7	-10
157	1	19	-35	2
157	31	18	-36	9
158	38	13	0	2
157	28	18	-4	-2
158	11	24	-1	-5
158	-16	22	3	-1
157	1	20	14	2
157	14	18	29	4
157	10	17	22	7
157	9	16	9	3
158	0	16	-5	-3
158	-7	22	12	-7
158	-19	22	9	0
158	-20	18	16	0
157	-15	15	9	1
157	-12	18	-11	-4
157	1	19	1	-11
157	9	16	-11	-2
158	10	15	-9	2
158	10	17	-3	8
158	-1	15	-1	6
158	-5	14	-4	5
158	10	17	1	5
158	24	18	5	7
157	24	17	3	8
158	27	16	15	0
158	30	14	21	-2
157	24	15	15	0
157	23	19	21	3
158	14	17	23	1
158	5	22	12	-4
158	-4	19	15	-3
158	-13	16	12	-5
158	-1	18	7	-4
158	1	17	5	-1
158	-1	18	4	2
157	-1	22	15	9
158	-2	23	20	4
157	-2	17	21	2
157	-7	19	22	1
158	-8	19	2	2
157	-19	20	-15	0
157	-11	22	15	0
158	0	19	19	0
158	-1	19	-24	-1
159	-1	21	-57	2
158	7	23	-25	1
157	11	19	25	4
158	10	23	8	4
157	14	27	21	3
157	13	23	4	11
157	4	17	-4	7
157	1	17	13	6
157	5	18	11	2
158	8	14	14	0
157	12	16	19	4
157	11	18	38	0
158	8	17	32	0
158	3	19	1	2
158	-4	20	-13	2
158	-6	16	5	2
158	-7	10	0	10
158	-3	8	-11	-1
157	2	13	-22	-1
157	10	17	-12	0
158	22	15	46	-4
157	26	18	35	-5
157	17	18	19	-7
157	10	17	10	-5
158	8	16	-25	-1
157	8	18	-15	2
158	3	16	15	-1
158	4	15	13	2
158	2	14	21	4
158	5	21	23	2
157	3	23	20	4
158	4	21	26	5
157	20	28	20	-2
157	20	24	14	-2
158	9	19	-19	-1
157	4	14	-41	2
157	-4	14	-28	-2
157	-13	16	-7	-8
157	-25	13	4	-6
158	-23	14	27	-6
158	2	15	46	4
158	11	17	30	4
157	8	15	17	6
157	17	18	6	2
157	20	24	11	-3
158	9	19	35	3
158	4	21	36	2
158	10	22	22	8
158	8	20	-4	4
157	-1	19	-8	1
158	-20	17	18	-1
157	4	16	-3	3
158	28	21	-5	4
157	12	19	1	2
158	17	21	-1	2
158	12	20	9	5
158	-22	17	13	7
158	-43	17	6	9
158	-35	14	-1	12
158	-34	10	3	8
157	-8	16	1	-1
158	9	23	3	-8
158	22	27	7	2
157	68	24	12	0
158	67	21	10	0
158	70	23	9	4
157	66	22	15	-1
158	26	18	20	-3
158	9	16	37	-3
157	-12	15	33	0
157	-13	15	-22	11
158	14	18	-79	16
158	1	11	-28	1
157	-4	6	8	-3
158	22	6	-8	-1
157	27	-10	20	-5
158	20	-8	10	-1
157	13	0	25	8
158	5	2	31	2
157	-11	11	20	4
157	-19	15	-6	4
158	-55	19	-19	2
158	-111	31	-7	-8
157	-70	43	-13	-14
158	-23	42	7	-4
157	-14	39	0	2
158	17	50	-4	2
157	31	44	10	0
158	49	33	15	2
157	52	26	17	6
157	15	18	21	14
158	-6	25	47	7
158	-17	25	31	-5
158	-4	20	17	-8
157	33	13	4	6
158	38	3	-5	4
157	45	6	10	-7
158	68	6	-27	7
157	71	17	-23	2
158	29	36	46	7
157	-11	33	53	2
158	-33	18	33	2
157	-31	9	26	1
158	48	15	6	-6
158	61	18	2	-7
157	3	18	-3	-13
157	21	17	-4	-10
158	1	19	6	-7
158	-7	16	8	4
157	-65	10	5	7
157	-126	-2	-2	9
157	1	-19	-7	10
158	8	-13	-7	7
157	-30	1	-3	-4
157	-50	6	-12	-9
158	-91	13	-5	1
158	1	17	15	3
157	24	16	13	2
157	32	51	13	0
157	51	112	22	2
157	-4	95	29	-5
157	2	29	30	-1
157	7	14	15	1
157	3	13	17	4
158	10	11	14	13
158	9	3	2	13
157	14	13	1	11
157	15	17	17	9
157	5	2	28	4
158	-16	11	-16	10
158	-14	10	-46	9
157	-5	12	3	3
157	5	3	24	3
157	48	7	-11	3
157	111	10	-11	-3
158	116	10	-10	-14
157	87	12	-49	-3
158	72	16	-33	-1
158	10	21	-4	-5
157	-68	17	-16	-3
158	-121	18	-5	-1
157	-98	14	-2	3
158	-72	13	17	-1
157	-30	8	42	-2
157	10	9	60	0
158	0	14	53	1
158	43	22	25	8
158	53	18	24	6
159	55	12	16	3
158	42	11	13	1
158	33	10	1	6
157	18	14	-3	0
158	-23	24	5	-2
157	-10	27	-1	4
157	-1	26	-9	2
158	7	30	-10	5
158	0	34	5	0
157	5	36	24	-8
157	7	32	28	-11
157	-2	25	13	-6
158	-2	23	13	4
157	12	22	5	-2
158	26	15	-7	4
157	16	14	7	4
158	14	13	19	4
158	5	13	20	4
157	35	13	10	-6
158	113	17	-3	-7
157	113	23	3	0
158	52	18	-2	3
157	25	16	-10	2
157	-35	19	1	1
157	-113	21	16	4
158	-179	17	24	3
158	-127	18	15	1
157	-5	18	9	7
158	-17	16	4	6
158	-16	8	-1	4
157	-14	8	11	3
158	-11	14	22	4
158	12	14	23	4
158	7	18	18	4
157	17	21	17	11
157	-5	28	17	4
158	-28	26	13	5
158	-15	14	-5	2
157	8	15	-35	-4
158	18	9	-24	-5
157	28	3	21	-7
157	36	17	-4	2
157	50	36	-44	10
158	64	26	-3	7
157	69	16	21	8
158	58	20	5	3
157	29	22	14	9
158	39	22	12	13
157	67	21	13	3
157	38	19	6	-4
157	18	19	-2	-12
158	7	9	8	-11
157	-24	0	25	-7
158	-78	2	27	2
157	-78	8	10	1
157	64	19	-6	-3
157	78	30	-14	-2
158	4	32	-4	-10
157	-30	45	-17	-9
157	-108	46	-3	-1
158	-71	42	8	-2
158	-21	29	11	-2
157	-15	22	33	2
158	5	23	38	7
157	11	22	47	1
158	31	18	39	1
157	39	17	35	-3
158	32	22	20	-1
158	14	16	8	0
158	20	17	-20	2
157	32	16	-33	2
158	19	12	-27	2
157	15	11	-33	-4
158	0	8	-14	4
158	-8	10	-8	7
158	25	9	10	2
158	105	3	52	9
158	107	-3	80	5
158	49	6	48	0
157	26	5	23	2
158	-47	2	32	11
157	-95	8	16	5
157	-132	10	12	2
158	-71	16	-4	11
157	0	20	-22	9
158	-48	29	-10	-2
158	1	40	-4	-3
157	-13	43	-11	-1
158	-23	43	-10	2
158	9	38	1	3
157	-12	28	10	-4
157	3	18	-10	-2
157	-5	19	-27	0
158	8	20	-5	5
158	19	25	1	4
157	15	21	-1	7
158	17	16	16	3
157	14	17	17	-5
158	2	13	15	-6
158	-22	13	-1	-9
157	-14	14	16	-5
157	10	7	38	-5
157	35	11	-27	-1
158	42	13	-16	8
157	40	-4	35	7
158	43	-1	5	7
158	54	5	-15	14
158	54	5	-3	4
158	51	15	8	-11
157	38	17	2	-10
157	4	18	4	-12
158	-44	19	6	-4
158	-86	22	20	0
157	-54	24	34	1
158	9	25	29	6
157	84	18	22	8
157	98	10	7	7
157	79	6	6	0
158	82	11	22	-2
157	27	15	32	7
158	-45	19	24	11
157	-89	21	2	6
158	-42	24	-19	0
158	-23	26	13	-3
157	-35	30	25	-2
158	-16	38	-19	-11
157	-65	33	-36	-8
158	-28	27	-23	4
157	1	23	-3	-3
158	-4	23	2	-5
158	23	24	2	1
157	21	24	5	10
157	26	18	21	18
158	28	13	29	10
157	43	15	23	4
157	40	15	40	5
157	28	17	11	9
158	10	15	-18	6
157	-5	14	7	7
157	-27	15	9	9
157	-42	17	19	2
158	-21	17	26	1
158	-9	15	21	-2
157	4	17	6	-2
157	4	18	-2	-2
158	4	16	4	-2
157	5	14	15	1
157	3	18	27	0
157	11	17	22	-4
158	8	11	1	-9
158	11	15	-26	-4
157	10	19	-6	0
158	9	18	4	0
158	8	22	-6	0
158	7	18	10	0
157	10	22	19	4
158	12	20	32	-2
158	14	18	26	-1
157	13	19	-4	3
158	12	14	-33	-2
158	13	18	-14	-5
157	11	18	0	1
158	5	15	-7	4
158	2	17	12	2
157	1	19	5	7
157	2	23	23	6
157	3	22	44	4
157	4	18	44	0
157	9	16	-1	-4
158	10	22	-51	-5
159	6	17	-14	-6
157	3	16	-2	-8
158	5	17	-8	0
157	8	15	8	2
158	1	20	0	4
158	5	20	9	7
158	6	19	13	1
158	5	18	16	3
158	5	18	18	4
158	5	16	8	-3
158	7	17	8	0
158	7	15	14	3
158	6	14	17	4
158	5	19	17	2
157	6	18	18	2
157	1	19	12	5
158	1	19	10	11
158	-1	18	6	15
158	-3	17	-2	6
158	-3	19	-6	-6
158	4	20	-3	-4
158	12	22	-28	-2
157	17	23	-25	1
159	10	20	15	-2
158	5	19	5	-10
158	4	15	13	1
157	-15	20	12	5
158	-35	22	-2	12
158	-30	21	5	10
158	4	22	1	4
158	24	18	13	0
157	25	17	13	-2
158	10	15	7	10
157	-18	17	52	7
158	-11	16	97	-2
157	-10	17	71	-5
158	-6	14	13	2
158	9	15	-21	-2
158	17	19	1	-12
158	34	19	15	-7
157	20	21	-3	-7
159	-18	17	6	7
157	-15	17	5	8
157	12	18	3	7
158	24	16	-9	8
157	77	14	-28	4
157	141	18	7	0
158	228	22	50	0
158	240	20	29	0
157	114	17	-34	2
158	19	19	-59	8
158	-137	21	-15	-3
157	-271	15	-9	-2
158	-267	13	0	-1
157	-146	21	13	2
157	-2	25	4	4
157	-8	17	17	-5
157	-20	11	0	3
157	-21	9	12	4
157	-9	12	20	13
157	22	13	19	8
157	11	11	10	2
158	-18	15	-3	-3
158	-42	14	-1	3
157	-20	14	-6	3
157	7	16	9	-10
158	18	16	16	-15
158	47	20	31	-17
158	89	25	12	-12
157	51	21	-5	-9
157	48	16	-2	-1
158	27	21	-6	2
157	-1	19	8	15
157	-13	21	10	14
158	-25	19	10	10
158	22	14	12	13
157	24	19	18	6
157	42	16	15	8
157	32	4	11	6
157	-13	-4	26	1
157	7	-3	21	3
158	70	12	8	4
157	105	26	5	-7
158	130	28	8	-1
157	84	22	14	4
158	7	21	6	2
158	7	26	-8	-2
158	-68	48	-1	-3
158	-142	64	25	-8
157	-183	48	9	-9
158	-61	30	-7	2
158	28	33	0	0
158	-9	41	-6	4
157	-14	26	-14	5
157	-38	14	-3	0
158	-20	15	12	-1
157	-28	14	40	4
157	-15	11	63	1
158	-41	-1	16	0
158	-47	-12	-3	15
158	-5	-6	19	7
157	8	6	39	8
157	54	9	-20	13
157	75	19	-73	22
157	99	23	-14	13
158	104	25	-1	2
157	95	29	-5	-2
158	46	38	0	-13
157	-22	31	1	-9
158	-39	28	6	-9
157	-28	26	3	4
157	-9	14	12	3
157	-4	11	1	6
157	38	2	-5	10
157	63	-4	-2	1
158	44	-7	5	-5
157	24	-4	16	-13
157	28	15	19	-16
158	55	37	23	-11
157	29	35	21	-5
158	-13	24	22	-6
157	-22	21	14	5
158	-30	18	9	6
157	-23	19	12	-1
158	-13	20	13	-4
158	-10	18	13	-7
157	-13	17	17	7
157	-11	12	42	12
158	-7	8	68	11
158	-11	2	45	13
158	-3	-3	-12	4
157	60	3	-18	4
157	118	12	5	4
157	71	15	-3	7
157	41	19	8	15
157	-33	15	10	18
157	-119	6	5	4
157	-117	12	-16	-7
158	-71	22	-25	-8
158	-14	27	2	-4
158	-75	39	8	0
158	-47	42	22	-1
157	-22	33	15	-5
158	-31	31	12	-4
158	22	37	11	-2
158	5	45	-5	-1
158	22	38	-34	1
158	15	21	-28	-2
158	-5	2	2	1
157	-52	-12	-7	3
157	-58	9	12	0
158	0	34	15	3
157	17	19	22	0
157	56	1	18	-1
158	80	-1	-26	4
158	52	0	-30	4
158	77	1	-1	-2
159	126	16	0	2
158	66	57	-8	2
158	2	41	4	-3
157	-20	-14	0	2
157	58	10	6	-1
158	143	22	20	-3
157	91	15	23	-4
157	49	34	31	-8
158	5	30	43	-4
157	-28	41	56	2
157	-7	27	48	-2
157	-17	24	33	1
158	-27	17	17	1
157	-22	11	20	0
158	-21	10	21	6
158	-8	-13	4	5
157	42	-10	-14	11
158	137	-7	-16	10
158	140	3	4	2
158	55	12	20	-7
157	-2	19	25	-13
157	-155	25	-1	-11
157	-319	36	-47	0
157	-215	42	-16	1
158	-19	48	14	2
157	-2	52	-3	13
157	15	45	9	13
157	35	47	-3	18
157	15	40	-6	9
157	34	24	2	-1
157	-39	4	4	-4
157	-88	10	-2	-4
158	-28	15	1	0
157	34	17	28	0
158	3	25	17	11
157	-47	13	4	13
157	-25	9	-5	12
157	-8	6	10	-3
157	-1	7	21	-14
158	-2	2	5	-5
157	53	5	16	-4
158	62	7	23	3
158	49	3	26	0
158	89	14	7	2
158	86	15	-15	6
158	79	13	-10	3
157	53	7	13	6
158	16	-4	3	4
158	12	-4	0	2
157	3	11	1	4
158	30	24	-4	3
158	34	34	1	0
157	6	35	-2	3
158	11	20	4	3
157	5	19	7	2
158	14	36	18	4
158	-1	26	29	-2
158	-15	28	26	-1
157	-7	33	14	-3
158	-13	19	6	-3
158	-23	15	-2	4
158	-36	14	0	3
157	-28	13	14	-2
158	-14	13	19	-5
157	-3	13	12	2
158	3	12	-16	2
157	-46	15	-10	3
158	-94	11	24	9
157	-21	14	27	10
157	34	21	21	4
158	32	17	-1	1
158	80	22	-37	-6
157	84	17	-23	-7
157	79	15	5	-4
157	43	19	9	-9
158	72	20	13	-6
157	83	21	23	-8
158	-9	21	35	0
158	-33	16	34	-2
158	-71	12	-11	2
157	-23	24	-34	13
158	82	17	16	6
158	116	11	16	8
158	68	18	-6	-6
157	31	15	-8	-4
157	-3	16	-25	8
158	-113	11	16	7
158	-202	0	14	13
157	-123	9	0	14
157	-9	31	21	15
158	-56	45	18	1
158	-53	36	12	0
157	-14	22	-8	0
158	15	29	-9	-5
158	32	31	11	-3
157	12	22	15	-4
158	17	24	25	-1
157	-3	23	55	-1
157	8	21	70	-1
157	11	21	56	8
158	26	19	29	2
157	30	18	18	-6
157	26	15	8	1
157	22	12	-7	-3
157	13	15	-6	-5
157	16	15	-3	4
157	20	15	-7	1
157	26	19	-7	4
157	19	21	-2	4
158	30	24	8	4
159	15	23	19	1
158	8	23	10	-2
158	4	17	5	3
158	-2	14	4	8
158	1	11	2	6
158	-20	12	-21	8
158	5	15	-60	11
157	5	10	-23	2
158	-2	2	9	-4
158	4	-4	-9	-4
157	0	7	-6	-1
158	8	22	-11	-8
157	5	10	-11	-15
158	10	-1	-8	-11
157	7	7	1	-10
158	10	12	10	-5
157	8	19	16	-1
158	11	24	37	-1
158	11	30	54	2
157	0	29	53	2
157	-13	38	-4	7
158	-50	39	-35	6
158	-57	33	-12	0
157	-15	33	-4	4
158	12	26	13	-5
157	30	15	13	-1
158	67	9	15	-2
158	94	11	21	-3
158	99	17	7	0
158	54	19	19	0
158	26	17	17	9
158	-20	18	-9	10
158	-31	18	-38	9
158	-25	28	-14	4
157	-57	32	8	-4
158	14	26	27	0
158	118	21	37	10
157	105	5	15	9
158	54	1	22	9
157	44	4	31	6
158	-49	1	35	-2
158	-165	0	28	2
158	-99	6	13	3
157	84	24	-2	6
157	70	35	-7	9
157	25	37	-6	11
157	-73	38	-16	1
157	-162	36	-4	-3
157	-75	28	8	-5
158	-56	28	13	-7
158	-2	32	26	-2
157	-6	29	35	-1
158	-12	20	30	0
157	7	17	15	-1
157	42	10	3	4
158	28	16	2	4
158	-81	30	17	2
158	-43	23	12	2
158	65	10	0	2
157	48	0	3	2
157	-15	-2	1	2
158	-25	8	3	4
158	42	-1	18	7
158	113	-6	17	6
157	86	-1	6	11
158	77	-1	-6	10
157	36	15	-11	0
158	42	24	-18	-3
157	63	11	-18	-8
158	36	13	-4	-7
158	38	23	4	-6
158	31	23	20	-10
157	34	24	28	-7
158	15	30	13	-3
157	-5	31	-9	0
158	-27	36	-5	3
157	-25	33	20	6
157	-27	31	13	10
157	-32	21	20	13
157	18	18	24	12
157	46	26	1	7
157	116	29	-17	-5
157	181	19	-2	-17
158	55	17	12	-7
158	-54	13	5	4
157	-77	0	9	0
158	-145	-11	-4	6
158	-233	-16	0	1
158	-187	1	8	-14
158	-57	8	25	-17
157	-57	6	35	-5
157	11	15	-10	10
158	21	36	-15	10
157	-2	68	37	3
157	20	111	3	-1
157	9	62	-34	-2
157	31	4	-18	6
157	24	29	-16	12
157	30	18	5	9
157	23	15	5	6
157	22	15	22	5
157	12	13	24	6
157	-4	12	18	11
157	3	2	22	3
158	17	9	0	1
158	41	3	-2	7
157	42	5	3	3
158	52	4	24	-9
158	63	5	26	-4
158	63	8	15	0
157	45	12	11	-6
158	20	14	16	4
158	-13	15	19	2
157	-27	18	17	4
158	-44	22	24	9
158	-97	17	15	6
158	-110	16	4	5
157	-72	19	-1	4
158	3	15	-1	5
158	48	14	11	-2
158	92	12	21	-5
158	104	11	15	-5
158	44	15	-10	0
157	-7	15	-3	2
158	-4	15	14	-2
158	21	19	-11	-7
157	127	24	-36	-7
158	270	29	-30	-2
157	205	25	-3	-1
158	155	24	5	1
157	48	18	6	3
158	-157	14	20	8
157	-320	36	28	2
158	-253	32	28	4
158	-24	9	22	3
157	-62	18	4	7
157	-49	16	-9	3
158	-79	21	4	-5
158	-95	27	0	3
157	-24	25	-4	1
157	-28	21	-4	-2
158	50	13	6	-2
158	66	14	16	-1
157	68	4	19	-7
157	70	5	27	-2
157	99	-2	8	-4
157	145	-4	4	2
157	68	0	15	8
157	-8	-4	28	2
157	17	9	47	4
158	-14	29	45	-1
158	-75	52	-1	-1
158	-47	52	-38	-5
158	20	29	-5	0
157	25	43	24	11
158	-24	46	31	11
157	-13	25	-8	10
158	-8	33	-48	8
157	-4	29	5	3
157	-21	23	0	5
158	-31	16	-17	0
158	-20	9	13	-6
159	-21	19	21	-4
158	-39	17	27	-1
157	-42	17	16	6
158	5	12	8	9
157	16	10	-16	4
158	58	7	-22	-1
157	71	7	-2	0
158	80	11	-1	3
158	60	8	6	4
157	-3	5	5	2
158	-5	0	6	-4
157	9	6	3	-6
157	60	6	6	-1
158	53	1	19	-2
158	45	1	25	-4
158	86	-2	23	-1
158	86	-6	12	1
158	40	6	-15	1
158	0	23	-17	-5
157	-40	26	12	-4
158	-115	37	15	-1
158	-141	44	21	2
158	-77	50	18	7
157	32	50	12	6
157	77	44	13	7
157	94	34	21	3
157	24	30	43	2
157	-15	24	52	6
157	-40	14	44	4
158	-138	13	6	-2
157	-150	3	-46	7
157	-54	-1	-27	10
158	-18	-1	6	0
157	-29	3	2	-3
158	45	10	26	-5
158	16	8	16	1
157	32	23	-24	-1
157	67	65	-37	-2
158	32	59	-6	-2
158	7	-1	5	-1
158	-32	15	-7	-5
158	-72	37	2	-6
158	-100	34	2	-2
157	5	23	24	-4
157	94	6	30	0
158	125	16	27	4
158	140	8	19	8
157	78	6	31	16
157	-2	-13	46	9
157	-2	-29	10	4
157	24	-9	-42	13
157	13	-6	-27	5
158	16	-17	1	10
158	95	-18	-10	4
157	132	36	13	0
158	75	109	6	0
157	11	95	22	-2
157	-43	49	58	4
157	-57	37	61	9
158	-117	25	9	16
157	-62	19	-60	14
157	17	16	-15	-4
158	-33	12	14	-9
158	9	16	-8	-10
158	72	9	7	-10
158	141	8	-16	-4
158	93	26	-19	-3
157	9	55	-7	-6
158	-3	52	-22	-4
157	-91	17	-1	-1
158	-195	-29	29	-4
158	-169	-42	27	-2
158	-17	14	31	3
157	-39	36	23	-4
158	-20	15	19	-2
157	6	-9	11	6
158	-22	-5	11	4
158	15	27	15	2
158	1	29	5	0
157	30	42	0	-5
158	17	33	8	-1
157	-1	27	18	4
158	-39	24	19	6
157	-18	18	0	4
157	45	13	-16	7
157	83	4	2	2
157	103	12	20	-2
157	34	6	7	-1
158	-31	10	-12	-2
158	-57	15	-9	0
158	1	10	12	6
157	14	2	10	9
158	-10	-2	21	1
158	53	2	6	-1
158	92	1	-4	-4
158	116	11	10	-6
158	97	15	14	-1
157	19	17	22	7
158	-63	38	19	7
157	-95	88	29	3
158	-6	63	22	3
157	23	4	5	-4
158	67	29	11	-2
159	174	21	32	-2
157	115	16	48	-8
158	63	16	31	-1
158	58	12	16	5
158	-70	17	1	7
158	-198	9	-86	15
159	-103	23	-98	9
157	-19	14	0	4
157	-56	10	-15	2
158	-39	5	-1	0
157	-31	2	21	1
157	-10	6	17	-1
157	-3	15	35	-4
157	-4	21	21	3
158	26	14	33	7
158	92	13	6	2
157	112	2	0	0
157	44	-5	8	2
158	51	9	0	-5
158	-5	42	9	1
158	-164	40	5	4
158	-227	20	5	-4
157	-109	21	10	-1
157	-36	27	14	1
157	-34	22	14	8
158	22	19	13	9
157	42	20	19	2
158	110	25	21	-9
157	110	37	16	-9
158	64	38	12	-2
158	44	26	-1	-3
158	1	3	-25	-4
157	-22	-19	-9	-4
158	-20	-7	15	3
158	-2	11	16	2
157	-60	4	22	2
157	-67	12	21	3
158	4	17	24	3
158	-8	22	15	6
158	20	36	-12	7
157	117	35	-2	4
158	157	28	6	4
157	124	28	-15	0
158	83	35	-10	-7
158	85	39	-4	3
158	53	39	-2	10
157	23	33	4	4
158	-18	19	-7	3
158	-68	2	-10	4
158	-15	-1	-1	-5
157	-23	4	14	-4
158	-3	3	20	-6
158	-10	25	33	-9
157	-73	28	37	4
158	-96	19	33	4
158	-44	31	43	8
158	138	28	52	4
158	130	24	44	9
157	43	19	6	9
157	-9	22	-25	0
158	-106	25	-32	2
158	-209	17	-5	-8
157	-163	24	8	-4
157	-25	22	-4	-2
157	-24	19	-7	-3
158	11	19	1	-2
158	35	18	27	-2
157	38	25	35	3
157	35	11	-15	9
157	29	4	-67	12
158	38	-4	-17	8
157	21	-2	8	0
158	16	7	-7	0
158	-5	12	13	-1
158	10	19	17	2
157	18	17	24	11
158	38	22	17	8
157	43	32	28	8
158	27	34	51	5
158	36	24	52	-11
157	30	19	-8	-8
158	26	24	-90	2
158	-8	26	-38	-2
157	-4	8	15	1
158	7	4	-8	4
157	-11	10	-16	-1
158	-33	19	-23	-6
158	-92	59	12	-10
157	-83	22	25	3
157	-41	-27	29	1
157	-6	8	40	3
157	99	25	12	1
158	177	26	2	-1
157	197	17	12	2
158	114	11	33	0
157	26	28	25	0
157	-54	24	29	-1
158	-188	18	17	10
158	-216	4	-7	6
158	-104	11	-15	2
157	-13	16	-13	-3
158	20	20	0	-3
157	75	31	-3	3
158	118	33	8	7
158	175	36	0	6
158	172	27	5	1
157	117	14	13	4
157	36	-11	19	3
158	-21	-13	40	4
157	-56	6	28	0
159	-162	12	8	7
157	-133	11	12	9
158	6	17	17	8
157	17	27	-6	4
157	-31	18	-11	3
157	-29	44	-3	-1
158	-24	42	5	-15
158	-16	-2	15	-9
157	11	19	17	-2
158	13	37	2	2
158	-3	20	-17	5
158	-14	28	8	3
157	-12	26	22	1
158	-3	34	22	0
158	20	25	22	-2
158	14	18	6	-9
157	-1	14	9	-7
158	1	10	21	-1
157	-5	8	53	7
157	22	-5	37	15
157	24	9	-41	9
158	3	14	-51	0
158	15	11	-7	2
158	34	17	6	3
158	51	11	1	-2
157	24	16	-19	1
157	-6	13	-3	2
158	-1	11	8	2
157	-21	16	-5	2
157	-74	16	14	-2
157	-45	12	8	-2
157	15	11	7	-4
158	23	19	6	-3
157	85	25	5	0
158	142	28	6	2
157	18	21	6	7
157	-161	18	10	4
158	-215	24	2	2
158	-122	15	4	6
158	26	10	6	3
158	69	3	13	-6
158	92	15	25	-3
157	195	43	28	-1
158	224	50	15	0
157	130	23	1	3
158	59	18	23	1
158	43	26	60	4
158	-26	15	58	0
158	-93	4	-16	7
158	13	2	-58	7
157	-21	-6	-1	9
158	-109	-24	13	4
157	-15	-17	3	-3
157	-9	4	24	-6
158	-23	61	6	-3
158	-30	70	-3	2
157	-25	20	-18	2
158	-17	28	-8	0
157	-2	47	6	-2
158	0	50	1	7
157	-23	56	12	10
157	-22	39	15	0
158	-40	37	10	-2
157	-12	39	-11	-4
157	33	50	-19	0
157	60	21	-16	4
158	67	-28	-4	-1
158	77	-57	-1	-3
157	38	-40	3	-1
158	-32	37	8	3
157	-39	46	0	8
157	-21	2	6	12
157	-33	14	21	9
157	-69	28	46	5
157	-33	25	69	2
157	63	17	84	-7
158	68	7	66	-8
158	34	2	25	-14
157	-21	4	-43	-13
158	-50	-4	-67	-1
158	-20	-10	-8	-2
158	-5	0	6	4
157	23	7	-5	6
158	40	11	2	0
157	106	11	-8	0
159	33	18	-10	0
157	-8	23	-6	-5
158	103	42	-2	0
159	48	58	9	6
157	-47	47	27	0
157	-33	25	31	9
157	-3	27	28	5
158	-34	44	12	9
157	-19	42	-15	8
159	-23	26	5	3
157	-15	1	12	4
157	3	1	5	-1
157	-27	-1	18	-2
158	-25	5	1	-1
157	-20	32	-1	-2
157	-3	19	16	-2
158	0	13	16	10
157	8	21	9	7
158	6	10	2	1
157	34	7	10	-1
157	25	14	7	2
158	-27	22	12	4
158	-15	27	6	1
158	60	21	-10	4
157	131	8	-11	3
158	122	13	-6	-3
158	75	19	10	-2
158	28	41	20	0
158	-35	40	31	4
158	-135	9	36	0
157	-103	22	43	-3
157	-9	22	50	0
158	-32	16	-31	7
158	-15	30	-84	10
158	-6	18	-4	-2
157	-2	21	-4	0
158	-18	19	-9	-1
158	-39	12	14	2
157	38	2	-6	4
157	117	-1	10	-2
157	132	6	7	2
157	69	-5	10	-2
158	31	-18	13	3
158	-65	-19	21	4
158	-156	21	24	5
157	-120	63	2	16
157	-37	25	19	16
157	44	12	34	2
157	116	39	14	-13
158	127	44	-36	-20
157	42	72	-55	-9
158	0	55	0	-1
157	-41	33	23	-6
157	28	39	11	-5
157	35	57	25	-5
157	-16	36	10	3
157	10	3	7	5
157	-11	17	5	8
158	-3	7	20	3
157	-29	1	41	3
158	-27	-1	8	4
158	-12	5	-33	2
158	-10	2	2	1
157	5	-15	43	-3
157	22	-4	20	2
158	33	10	24	-1
158	32	17	17	1
158	33	5	13	3
157	-36	3	2	3
158	-81	0	-17	7
157	-36	19	-11	2
158	7	52	-19	8
157	20	41	-11	13
158	39	13	0	6
158	24	16	-3	-5
158	8	25	4	-2
158	10	22	15	-2
157	55	25	26	4
158	55	19	33	5
157	-45	17	33	7
157	-60	17	43	8
157	-85	13	53	4
158	-113	10	38	8
158	-64	1	13	9
158	75	2	-6	9
157	159	13	1	-6
158	159	10	18	-6
158	156	7	12	0
157	40	11	12	-5
158	-72	0	-7	-6
157	-55	-15	-28	1
157	90	25	-17	-5
159	84	21	34	-15
158	-25	-2	59	-8
157	-71	19	6	-13
159	-90	-8	-66	-12
157	-6	-27	-80	6
157	20	-65	-2	-3
158	70	9	4	-1
157	57	191	-6	6
158	14	172	23	6
158	8	12	24	10
157	-81	-2	57	4
158	-137	99	52	3
157	-95	75	-13	2
159	16	42	-75	7
157	1	30	-12	4
157	0	20	42	4
157	11	24	-22	7
159	-8	16	-49	12
157	-10	14	-20	5
157	-32	1	10	-7
158	-5	9	-8	-13
157	63	5	10	-13
158	103	-7	19	-6
158	90	-21	37	-2
158	71	-10	45	2
158	-8	7	25	6
157	-54	13	25	7
159	-53	-4	7	7
158	-61	-19	15	10
157	-38	15	6	14
157	-14	37	-1	6
158	5	44	-9	1
158	41	21	-11	4
158	64	13	-6	6
158	58	19	2	2
157	53	13	24	2
157	16	18	21	2
157	-30	18	27	6
158	-74	13	30	5
158	-102	4	35	7
158	-30	9	46	1
158	42	0	50	5
158	61	-3	23	6
157	51	5	17	-2
157	54	9	14	3
157	50	1	-3	-10
158	40	0	4	-13
157	-1	-5	-49	-1
157	10	-12	-58	1
158	93	8	-10	-3
158	64	17	-19	-8
158	18	21	-3	-4
158	-28	37	6	4
157	-42	107	3	4
158	-13	122	23	-1
157	-25	36	20	1
158	-17	6	20	-2
157	-42	16	22	4
158	-27	11	17	4
158	43	18	28	6
157	59	12	55	9
158	24	1	54	7
158	17	9	-28	8
157	-10	-1	-77	7
158	-73	-11	-7	-6
158	-61	2	24	-12
157	5	11	3	-2
158	-16	16	21	-3
157	-36	45	8	-2
158	-29	90	-2	-1
158	-43	91	-1	2
158	7	17	-10	1
158	8	10	-13	1
157	19	16	-7	-1
157	26	3	0	-3
157	25	18	12	-4
158	88	15	34	-4
158	103	23	41	0
158	36	16	16	1
157	-12	7	-43	15
158	-49	10	-24	12
158	-119	19	28	6
158	-55	34	4	-1
158	45	62	9	-7
158	75	28	12	0
157	53	-34	24	1
157	-2	-66	34	7
157	-69	-68	-1	22
157	11	-18	-15	13
158	47	-24	-3	2
157	-32	-14	19	4
157	14	27	15	9
157	86	28	13	6
158	125	47	9	-5
158	47	41	27	-8
157	-45	56	41	-5
158	-84	72	3	0
157	-11	65	-2	-3
158	10	61	8	-5
157	-59	46	-7	2
158	-22	41	4	6
158	12	28	22	2
157	63	17	6	0
157	42	9	-17	0
157	59	1	-7	-5
158	56	-4	25	-1
158	-30	0	2	3
157	-40	-4	3	7
158	-8	-2	8	6
158	-14	11	1	-1
157	-15	8	26	5
157	69	5	54	0
157	87	12	72	-4
157	79	34	5	-3
157	31	35	-81	6
158	-3	13	-49	1
158	-60	-18	-10	-6
157	-156	-4	-39	-1
157	-107	30	3	-2
158	-32	28	8	0
157	-72	3	14	-4
158	-83	-8	23	0
157	-1	28	5	2
158	19	56	34	1
157	66	36	32	4
157	83	40	49	3
157	80	41	70	7
157	94	29	59	4
158	75	25	-29	6
158	24	22	-80	6
158	-88	18	-8	0
158	-103	17	1	4
157	-83	16	19	1
157	-37	-6	35	-2
158	67	-6	-19	-1
157	109	-14	-45	0
157	108	-44	-9	3
158	103	-54	10	-1
158	62	-17	-8	2
157	2	42	11	1
157	-57	28	13	-6
157	-21	12	19	-2
158	-2	92	20	-2
157	-24	89	22	0
158	-17	68	28	-4
157	-11	94	-10	-9
157	0	54	-13	4
158	-1	34	14	7
157	42	38	16	4
157	94	48	12	4
158	123	27	13	4
158	61	7	4	10
157	-29	23	10	7
157	-87	52	15	4
157	-112	47	3	11
157	-102	-12	-10	8
158	-32	-37	8	-3
157	-10	-49	41	-6
157	-31	2	30	-5
158	-9	-4	-4	-4
158	-39	-54	-10	4
157	-26	-7	57	6
158	-24	7	90	3
158	11	9	4	11
157	41	13	-90	6
158	40	11	-66	-3
158	114	27	0	-3
157	162	29	-1	-5
158	117	23	23	-7
158	20	16	13	-6
158	-65	19	10	-3
157	-158	19	10	2
157	-295	17	5	6
157	-222	20	28	1
158	59	16	21	-1
157	123	4	14	-2
157	121	-6	-13	4
159	89	0	-19	6
158	95	15	5	5
158	172	22	4	3
158	144	34	21	0
157	92	40	57	1
157	11	44	28	-5
158	74	59	-63	-3
157	100	53	-54	-5
158	13	29	33	-5
158	-31	20	24	4
158	-70	20	36	2
158	-112	17	42	4
157	-160	17	8	7
157	-71	20	-11	13
157	-4	13	-11	11
159	-58	2	24	-6
157	-43	14	15	-2
158	-29	18	31	-1
157	-24	10	33	-3
157	-18	18	13	-5
158	-15	11	9	1
157	7	9	-18	-7
158	5	16	-48	-11
157	35	31	-58	-3
158	42	27	23	-4
158	43	6	64	6
157	33	-6	64	3
158	8	-17	34	7
157	11	-19	-36	15
157	-3	-33	-9	18
158	7	-17	6	12
158	35	43	-7	-7
157	40	74	0	-7
157	35	54	-10	1
158	17	69	2	12
157	-3	65	7	13
157	-38	37	0	9
158	-55	48	-5	3
158	33	36	-6	0
157	113	26	9	7
157	53	13	16	2
157	1	2	21	2
158	-96	7	15	-4
157	-210	11	7	-9
158	-222	11	18	-9
158	-133	10	14	-4
157	54	17	11	-1
158	94	15	15	1
158	141	9	4	7
158	222	-5	8	5
158	211	-12	3	5
157	146	3	14	7
157	-9	15	36	4
158	-61	22	27	7
158	-41	33	-2	10
157	-5	38	-20	2
158	44	47	-7	-4
157	53	38	3	4
158	33	22	6	9
157	11	22	19	7
158	-42	25	19	-1
158	-126	27	60	-10
157	-136	5	111	-6
158	-39	-6	79	-4
158	33	12	-65	-9
157	13	19	-144	-6
157	15	15	-34	-6
157	28	8	-11	-3
158	49	6	-26	-6
157	51	-8	-17	-4
158	53	-10	-8	0
158	120	10	17	3
158	133	17	-2	15
158	32	22	14	14
158	-42	21	9	11
157	-96	34	16	0
158	-166	82	25	-5
158	-149	70	26	-1
158	-34	-15	33	0
157	18	-61	6	7
158	-1	-52	-27	9
158	0	26	1	6
158	-18	45	34	6
158	-2	7	6	7
158	-14	72	31	0
157	13	38	25	-10
158	30	-25	12	-7
157	18	6	-13	-5
158	42	16	-45	-4
157	5	31	-1	-7
158	-4	29	0	-4
158	12	15	4	0
158	-8	-4	10	-2
157	-26	7	16	-3
157	7	59	24	2
158	15	117	27	9
158	12	69	43	0
157	56	4	28	-4
157	84	26	10	-2
158	128	-1	15	3
158	165	-14	21	6
157	120	-13	13	8
157	-2	0	9	4
158	-131	11	-2	0
157	-116	18	-9	-2
158	-25	34	-2	-1
157	-78	34	-9	2
158	-86	52	-6	2
158	-24	48	17	2
158	-9	24	27	2
157	53	3	3	5
158	75	14	-23	4
157	75	8	-7	3
158	45	8	14	4
157	25	19	1	6
157	-12	20	8	10
157	-40	26	12	13
158	-17	7	24	4
158	-14	-2	22	-5
157	-12	3	28	-6
158	-38	10	75	-3
158	-56	7	97	-1
158	-47	8	63	-3
157	-19	6	-36	4
158	-21	8	-116	13
158	-31	-6	-62	7
158	20	-8	-10	0
157	84	11	-37	2
158	160	11	-23	-1
157	196	25	21	-2
158	121	31	66	-1
157	52	29	73	-9
157	-10	39	-22	-2
158	-101	44	-59	2
158	-146	33	-1	0
158	-68	25	-9	-2
158	-11	28	-4	-6
157	-16	20	6	3
157	11	16	0	1
157	-31	17	11	7
159	-64	18	12	4
157	-118	17	23	0
157	-47	15	0	1
158	75	7	4	-1
158	126	4	0	2
157	129	3	-7	-8
158	43	-5	30	-7
157	-40	4	42	-10
158	4	12	15	4
157	54	21	-30	10
157	-15	14	2	4
157	25	-4	27	0
158	-14	27	-1	1
158	-11	62	15	2
157	-3	52	16	4
158	-54	35	9	10
158	-42	39	10	4
157	-68	37	9	-3
158	-24	27	18	-7
158	-1	20	15	-3
158	25	16	14	1
158	36	9	4	1
157	58	5	10	9
157	140	4	27	11
158	160	4	43	-1
158	96	9	0	2
157	40	17	-45	8
158	13	20	-3	6
158	-81	12	19	7
157	-147	14	12	4
158	-75	25	7	-1
157	-22	29	-4	-13
157	-61	24	4	-13
158	-52	25	1	-8
158	-54	15	2	-3
157	-27	15	4	11
158	3	34	3	15
158	14	29	7	8
157	53	25	5	0
157	55	24	7	13
157	62	17	50	7
159	13	13	82	3
157	-5	8	22	9
157	27	15	-10	3
158	24	9	1	4
157	27	-4	-50	1
158	34	-14	-39	-6
157	22	-11	14	-6
157	-44	3	-1	-1
157	0	6	15	-3
157	48	12	15	2
158	-3	20	17	2
157	36	19	5	7
157	84	16	0	8
158	17	28	45	2
157	-140	74	80	-4
157	-142	82	46	-5
157	-24	7	-63	4
157	-6	1	-58	2
157	49	37	34	4
158	103	35	-1	1
158	126	43	-15	3
157	81	26	0	2
157	-2	6	-5	4
158	-1	3	6	2
158	8	15	9	-2
157	44	16	23	-10
158	2	40	1	-13
157	-29	34	22	-10
157	-38	11	33	-11
157	-32	9	-12	2
158	-16	5	-36	9
157	-56	25	3	10
158	-53	34	20	13
157	-48	14	-7	11
158	-24	-21	-11	10
157	10	-35	-23	3
158	48	1	29	-1
157	80	64	59	-3
158	80	29	52	-7
157	90	8	16	2
158	58	35	-30	10
157	78	9	1	9
157	102	6	12	7
157	24	8	6	-8
158	-35	9	6	-22
158	-95	0	0	-14
157	-157	-7	8	-11
158	-140	-20	18	-3
158	-66	-6	29	7
158	28	16	42	6
157	-60	-28	49	2
157	-186	-12	23	2
158	-144	92	-17	5
157	38	160	-32	0
158	102	88	-13	11
158	75	27	-6	10
157	141	41	-10	6
157	169	30	-4	8
158	188	31	-3	4
157	46	10	2	7
157	-39	13	13	10
158	-38	24	52	5
157	-42	11	68	2
159	-8	18	-8	1
157	-36	8	-82	-4
158	15	-5	-43	-6
158	26	0	-2	-1
158	20	7	2	-1
158	25	2	10	3
157	14	-19	3	12
158	30	-33	11	7
158	44	2	15	6
158	30	24	8	4
158	-2	-9	14	2
158	-13	-11	15	-3
159	-21	16	17	-3
157	5	71	5	0
157	-15	62	1	-4
159	-41	-6	4	-2
157	-18	4	8	2
158	-27	2	34	5
158	11	7	38	9
158	64	36	13	10
157	71	60	31	4
158	63	55	33	6
157	18	35	-57	2
157	-82	42	-80	-4
157	-149	14	30	-7
157	-51	27	52	-6
158	14	29	45	-5
158	-50	11	18	-9
157	-34	17	-51	-4
158	10	12	-14	0
158	74	11	4	9
158	85	15	25	11
158	53	15	40	8
158	41	12	16	-2
158	-61	6	10	-3
157	-163	2	0	-4
158	-70	9	15	-14
157	28	9	12	-7
157	-38	13	-15	1
157	39	22	-20	2
158	105	34	-13	4
157	72	37	-10	10
158	15	23	18	17
158	-100	8	8	10
158	-59	13	-7	0
158	11	15	5	3
157	65	6	11	0
157	107	5	19	2
158	106	8	13	-3
158	115	16	13	0
159	68	18	13	0
158	-35	13	22	-3
158	-83	14	19	3
157	-32	19	19	3
158	26	27	17	-1
158	67	27	28	-3
158	83	19	66	2
157	85	20	38	-4
158	58	25	-57	9
158	1	16	-82	11
158	-61	10	-5	0
158	-113	11	-1	2
157	-71	11	1	-4
157	28	37	17	4
158	44	79	3	4
157	-3	59	25	-2
158	-51	9	34	-7
157	-72	-13	52	-8
158	-118	17	29	-5
158	-100	62	13	-2
158	67	17	16	2
157	78	-19	-1	-5
157	31	1	-5	-1
159	23	9	-1	0
157	7	-2	16	-2
157	24	-5	8	4
158	-25	18	9	6
158	-7	14	39	9
157	-12	13	36	5
158	0	4	-19	13
157	48	7	-55	14
158	69	34	-20	-3
157	8	51	18	-3
157	-25	36	0	3
157	45	11	-2	2
158	-51	7	-1	4
158	-81	-2	1	7
158	-1	-2	50	2
157	13	7	68	-8
157	-13	3	-12	-10
158	-38	3	-108	-1
157	-37	13	-33	-3
158	-12	44	43	0
157	42	106	27	4
158	113	89	34	-5
158	173	14	-16	3
158	147	18	4	3
158	64	15	16	2
157	-13	10	-25	6
157	-36	10	15	1
158	5	-1	35	-1
157	-8	16	23	-4
158	-7	19	-30	-1
157	7	-6	-15	1
158	-60	-17	49	4
158	-56	-9	29	8
158	-40	-12	9	17
158	-5	5	-28	18
157	40	29	-35	4
158	80	99	-10	0
157	128	108	-21	2
157	33	29	-12	9
158	-24	23	0	3
157	-77	9	9	-1
158	-194	-8	10	-6
158	-193	-4	23	-12
157	-68	0	41	-6
158	19	12	26	-5
157	6	-1	16	-1
158	41	3	13	3
158	40	22	12	3
158	21	31	40	4
158	19	42	82	-1
157	9	42	63	-4
158	19	27	-34	2
157	55	6	-71	3
157	98	-8	1	-4
157	92	23	24	-1
158	70	34	25	2
158	-36	7	19	9
158	-96	-9	-12	10
157	-51	-18	4	-1
158	-31	-3	4	-6
158	-58	13	0	1
158	-36	3	8	3
157	-86	-10	6	-4
158	-38	-11	7	-4
157	148	27	1	0
157	193	52	-2	0
157	201	41	4	-2
158	120	38	13	2
158	43	35	29	3
157	-1	22	45	2
157	-25	26	24	8
158	-60	33	3	10
158	-44	30	23	2
157	2	31	10	-1
158	-35	26	-66	-3
158	-8	32	-82	-4
158	-8	33	1	-3
158	8	15	-3	-5
157	14	12	8	5
159	-13	14	74	7
158	5	9	96	4
158	-13	10	39	10
158	-35	42	-61	0
158	-7	51	-17	-11
157	8	9	6	-13
158	-26	-31	-17	-9
157	-29	-42	23	-8
158	6	26	29	-6
157	15	87	44	-1
157	-11	36	2	4
157	19	-14	-54	9
158	97	-1	-17	3
157	59	0	4	4
157	7	6	2	8
158	20	17	20	6
157	-29	13	13	4
158	-81	18	5	5
157	-73	20	-7	15
158	-33	33	-1	7
158	-77	32	20	6
157	-94	29	9	11
157	-72	14	16	3
158	-37	6	13	0
157	82	12	11	-4
158	43	1	18	-2
157	8	15	6	-2
157	29	40	4	-6
158	57	16	12	-1
158	129	5	18	0
158	79	33	22	0
158	48	19	31	9
158	47	17	43	11
158	18	14	31	3
157	-33	-5	-61	7
158	-42	-9	-71	9
158	36	-17	18	-4
157	57	1	13	2
158	64	14	14	2
157	18	29	12	2
157	-17	73	-18	-2
158	9	110	-4	-11
157	17	41	-1	-5
157	12	-24	8	-4
158	-28	-9	6	-2
157	-22	0	6	-6
158	15	10	6	-2
158	2	15	3	-1
158	47	27	25	2
158	99	18	35	10
157	67	18	41	14
158	29	42	41	19
157	-18	43	30	6
157	-45	39	1	-1
158	-109	33	-41	-1
158	-87	26	-22	-7
157	14	19	16	-15
157	-60	24	-12	-14
157	-113	21	-20	-5
157	-58	22	4	-7
157	-5	32	15	-11
158	-36	41	37	-7
157	-25	27	32	0
157	2	8	-4	2
158	-5	14	-4	-1
158	28	4	26	7
158	7	6	30	11
158	-6	13	6	9
158	-28	9	-11	9
158	0	3	35	3
157	16	-3	83	2
158	58	-6	21	7
157	73	-8	-65	11
158	-25	-5	-40	7
158	-12	26	10	4
157	8	57	-45	10
157	5	-11	5	0
157	75	-19	27	4
158	172	12	-14	13
158	169	12	21	10
157	122	62	18	2
157	77	77	27	-2
157	-3	53	7	2
157	-35	-6	10	3
158	-59	-20	8	0
157	-92	29	-5	-1
158	-90	43	-21	4
157	-16	-18	-40	6
158	13	-33	-6	10
158	5	-4	44	4
158	24	2	84	-6
157	11	14	7	-2
158	37	7	-72	2
157	3	13	-26	-9
158	-40	10	19	-13
158	34	24	2	-13
158	97	26	23	-11
157	90	34	11	-4
158	63	44	1	2
158	20	36	16	9
158	-23	40	17	-1
158	-63	36	19	3
158	-70	11	6	6
158	1	3	13	6
158	-64	45	10	4
157	-141	40	9	7
158	-156	23	0	10
157	-151	27	-2	4
158	-88	34	8	4
158	-20	38	18	6
158	51	34	35	3
157	66	28	45	5
157	121	11	41	-4
157	172	5	8	-3
158	140	-3	0	1
157	52	1	18	-12
158	-35	6	5	-16
158	-40	9	-1	-11
157	-80	16	32	-9
158	-165	14	32	-6
157	-118	16	-17	-6
158	-52	35	-40	-9
159	6	47	-40	0
158	77	29	-33	10
159	95	21	4	5
157	175	15	30	9
158	163	2	41	0
158	95	3	6	2
158	36	14	-47	15
157	-43	9	-8	9
158	-32	-2	21	-2
157	-46	-5	4	-1
158	28	-9	16	6
157	185	-3	27	5
157	173	-18	70	8
157	105	-32	91	3
158	23	25	-2	2
157	-99	55	-88	10
158	-189	15	-20	5
158	-146	43	24	2
157	-29	135	-8	3
158	-47	117	16	-2
157	-45	45	-3	-10
158	-19	24	13	-3
158	-20	13	5	11
157	-8	-11	-17	10
157	-18	4	5	-1
158	14	-2	0	3
157	19	-28	0	7
157	33	-22	-4	1
158	58	-10	6	0
157	82	4	1	4
158	52	17	2	8
158	-4	26	12	6
158	-35	28	4	-2
157	-122	34	5	-4
157	-182	24	9	-2
158	-116	16	29	-2
157	10	40	44	-3
157	60	52	63	-6
157	94	36	78	3
157	100	10	43	-4
157	104	13	-53	4
158	137	11	-56	15
158	86	-10	14	10
157	-9	-9	-11	13
157	-17	0	-26	0
158	15	13	-25	-2
157	23	24	-31	0
158	10	19	14	-10
157	-40	15	63	-1
157	-123	37	70	-2
158	-158	52	14	2
157	-131	35	-41	6
158	-121	1	-24	-11
158	-44	-14	27	-3
158	35	17	22	-3
158	131	50	-4	-1
158	258	45	-1	2
157	255	40	2	-3
158	202	37	-7	0
157	130	7	-5	-7
158	-25	2	-1	-3
158	-182	15	-1	2
158	-118	7	6	4
158	17	-3	14	12
157	24	-22	19	10
157	48	5	19	16
157	43	9	16	14
158	0	-13	37	0
157	-5	19	93	-19
159	-67	7	84	-17
157	-129	25	-47	-8
158	-73	87	-84	-2
158	-5	70	23	2
157	-27	42	4	8
157	-28	-12	1	9
158	-7	-49	32	4
157	8	0	-25	6
159	20	9	-30	1
157	-25	-37	6	-1
158	-96	-14	20	-3
157	-104	58	-11	8
158	-22	72	-2	4
157	18	24	14	-1
158	67	14	28	1
158	116	14	27	-1
157	146	1	22	7
157	135	19	18	3
157	77	50	-4	1
158	21	65	-14	7
157	-65	22	-20	-3
158	-91	5	-10	-9
158	-45	25	-4	-1
157	38	25	28	-7
158	38	37	53	-8
158	38	43	36	0
157	-13	42	-32	17
157	-80	38	-33	19
158	-63	20	47	8
158	-63	19	27	10
157	-35	31	-3	4
157	-22	21	-22	4
157	33	12	-15	4
158	146	9	2	-1
158	224	-5	-5	5
158	177	-10	15	6
157	93	-3	25	-2
158	20	1	38	-6
158	-49	-10	35	-12
158	-54	-15	15	-10
157	34	-11	-21	3
158	18	-16	-19	-3
157	-81	2	-1	-2
158	-99	9	0	-2
158	-176	-7	26	-3
158	-122	-1	37	6
158	-29	-18	9	7
158	-14	-3	-26	5
157	15	80	-15	-6
158	18	74	9	3
158	9	31	5	6
157	17	58	6	4
157	11	124	15	-1
158	-65	127	6	-5
157	-100	17	1	0
157	-26	6	1	-3
157	34	17	0	-2
157	89	3	26	-1
158	120	14	82	3
158	119	-1	69	2
159	128	19	-53	18
158	80	22	-101	23
157	-8	13	13	9
157	-46	8	20	2
158	23	18	1	-6
157	41	0	42	-15
158	-3	3	18	-11
158	29	9	-14	9
158	40	-10	-28	2
157	-27	-12	13	-2
158	-73	-3	-7	-3
158	-63	19	-3	-4
158	-85	4	15	4
158	-106	35	3	-5
158	-143	97	21	1
158	-17	56	12	4
158	132	-24	24	4
158	117	7	5	-1
158	144	14	9	-4
158	120	4	18	-6
158	12	10	16	5
158	-93	-6	13	9
158	22	25	5	9
158	72	34	20	11
158	-31	27	60	6
158	-27	17	87	4
158	-54	17	19	0
157	-7	47	-13	4
157	1	47	10	7
157	1	29	8	1
157	-3	26	-13	-2
157	-15	52	-23	-1
157	-38	69	4	-5
157	-128	24	3	-4
157	-98	-28	-6	-4
157	-34	-53	2	-3
157	3	-2	4	2
157	73	10	15	2
157	140	-47	6	4
158	148	-10	-39	6
158	142	2	-34	4
158	112	7	2	-4
157	25	16	0	-8
158	31	9	15	-5
157	-5	30	9	2
158	-62	38	-4	12
158	80	25	5	7
157	71	-7	-3	7
157	-54	1	-6	9
157	-53	16	3	-4
157	-149	38	19	-8
157	-200	46	37	1
157	-84	31	18	10
157	24	34	-27	11
157	7	43	-15	6
158	-27	39	19	2
158	-45	37	5	-5
158	-73	37	-12	2
158	15	41	-9	13
157	79	45	13	8
157	70	28	29	4
158	45	25	45	6
157	68	5	95	-6
158	67	-10	113	-16
158	-3	-19	-14	-14
157	-7	-29	-177	-5
157	38	-24	-70	-3
157	42	-21	42	-2
158	29	-2	-15	2
157	-41	7	28	0
157	-100	43	17	4
157	-32	87	22	0
158	3	40	21	4
158	30	-8	-11	2
158	61	74	2	-12
158	94	86	-17	-2
158	112	23	5	3
157	82	39	17	-2
158	26	29	36	5
158	-33	19	52	4
158	-36	17	83	4
157	-37	12	109	-2
158	23	8	93	-4
159	91	10	-9	0
158	47	26	-104	1
157	-3	16	-18	-2
157	-72	5	6	6
158	-70	8	-3	13
157	-8	17	21	3
158	-17	21	-11	-1
157	-17	4	-10	6
157	-30	-24	-17	15
158	-25	-18	-4	6
157	3	7	-5	8
157	36	-22	-26	8
158	77	-48	-27	1
157	41	-63	2	-4
157	23	-9	49	-8
158	-68	111	36	4
158	-210	102	-18	2
157	-157	47	-39	3
158	-38	60	10	-3
157	-48	79	19	-2
157	-36	76	6	-1
157	66	62	2	-2
157	177	34	-7	0
158	151	-34	10	-6
158	75	-53	8	-1
157	26	-6	5	-6
158	9	11	10	1
158	20	-4	12	4
157	-16	6	22	2
158	-16	14	59	5
157	-31	12	75	7
157	-32	10	-5	5
158	-77	6	-92	6
158	-81	16	-31	0
158	17	9	29	-10
158	20	24	7	-2
157	51	41	22	-1
157	149	19	-11	2
157	191	1	-8	4
157	110	-34	2	4
157	25	-34	2	6
157	-1	8	15	4
157	5	-10	8	7
158	15	10	27	5
158	-31	56	25	0
158	-36	43	23	-1
158	-18	40	5	9
158	-3	50	24	7
158	-11	82	33	3
158	-29	96	-33	8
158	-10	52	-42	6
157	5	5	13	6
157	-23	14	11	2
157	-63	11	4	-10
159	1	10	18	-3
158	-11	17	-7	2
157	-168	0	3	-3
157	-143	-25	9	-1
157	89	-25	16	-3
157	102	-7	33	-5
158	-62	-13	66	-6
157	-53	-12	111	-5
158	-90	30	58	-2
158	13	127	-39	5
158	132	96	-50	15
158	120	14	4	11
158	126	14	13	7
157	60	17	26	7
158	26	33	13	3
158	19	38	9	-4
157	88	12	6	-9
157	78	-9	-48	-2
157	67	1	-28	-3
157	38	9	-3	-3
158	-53	10	-1	-1
158	-86	12	9	-2
158	-63	17	-1	0
158	-50	11	8	-6
158	-73	10	4	-9
158	-51	14	5	-1
158	-54	9	4	6
157	-25	9	25	11
158	23	-6	90	8
157	72	-30	78	15
157	173	-32	-52	14
158	149	-4	-124	8
157	14	2	-10	-5
157	12	-6	27	-9
158	-20	-9	-19	4
157	-137	17	-8	-1
158	-135	120	-25	-2
157	-72	111	2	1
157	-51	58	1	-5
158	-15	74	-7	-5
158	5	50	13	-5
158	13	41	21	-1
158	34	22	28	-5
157	18	11	20	2
158	36	9	22	7
157	64	-11	14	4
157	81	-1	15	9
157	43	-3	30	3
157	-5	7	39	-5
157	-56	15	17	-4
157	-141	18	-35	6
157	-132	23	-18	-1
157	-30	22	20	-6
158	14	26	12	-11
158	10	26	8	-4
157	-14	20	6	8
158	-39	15	8	13
157	25	15	18	18
158	20	0	27	6
157	8	-7	23	4
158	106	-3	-5	3
157	174	1	-2	2
157	161	0	11	0
158	116	10	-2	2
157	101	61	-1	4
158	94	82	12	2
158	32	13	29	6
157	-30	-12	60	-3
157	-9	-1	31	-5
159	23	0	-48	2
157	33	2	-25	8
158	28	1	37	-2
157	16	23	-13	-6
158	28	15	-23	3
158	28	19	0	7
157	-20	41	17	8
158	-41	47	43	10
158	-100	46	-13	7
157	-188	36	-47	-4
157	-164	48	-24	-7
157	-49	61	12	-1
157	-29	40	17	7
158	-61	-4	12	4
158	-27	-21	5	-1
158	35	15	-13	-1
157	101	37	-8	1
158	38	-20	22	-3
157	12	-17	84	1
157	4	25	104	0
157	-89	9	15	-1
158	-155	22	-73	3
158	-65	42	-3	0
158	63	35	35	-1
157	68	-26	2	-5
158	78	-100	15	-9
157	21	-71	4	0
158	0	-2	32	4
157	-120	13	24	10
157	-177	41	-16	14
158	6	31	-17	7
157	99	86	1	-5
157	159	103	5	-6
157	190	9	-5	-6
158	248	39	-1	-1
157	242	24	-2	-2
158	104	22	6	-2
157	-13	35	1	-2
158	-67	36	5	-5
158	1	39	4	-5
158	20	22	19	2
157	-24	22	48	5
157	-44	21	37	-4
158	-25	28	-20	6
158	1	7	-34	4
158	-45	-17	24	13
158	-39	-3	31	16
158	38	38	31	-2
157	118	25	26	-8
158	74	5	3	-2
158	-15	-2	-33	-8
158	-64	6	-86	2
158	-186	8	-29	14
157	-237	-25	16	3
158	-83	0	-14	9
157	-14	58	8	7
158	-66	40	17	8
158	-30	-3	28	12
157	-22	29	32	4
158	20	46	28	-3
158	40	52	18	-2
157	59	39	-26	1
157	62	21	-27	2
157	4	36	23	7
158	29	20	60	-1
157	11	14	70	-8
158	-45	5	6	2
158	-22	17	-81	5
157	68	18	-8	-3
157	15	11	38	-7
158	-49	19	10	-9
158	-80	21	42	4
158	-147	22	18	10
157	-55	14	22	7
157	47	8	13	3
157	105	16	8	-5
158	187	16	23	-3
158	196	2	-22	-2
157	123	13	-29	-3
159	49	9	-2	-2
158	-23	-9	5	4
158	-115	-2	10	8
158	-40	9	19	10
158	40	15	0	11
158	38	17	14	4
157	92	24	33	-2
158	68	36	25	-2
157	90	41	25	-4
158	62	38	21	-1
157	7	38	18	-4
158	-7	35	-1	2
158	-25	28	-15	4
158	11	23	-15	3
157	9	13	-9	0
158	39	2	-7	0
157	46	-7	-10	3
157	7	-9	10	1
157	-15	22	13	8
157	-67	47	22	8
157	-151	29	72	4
158	-144	18	85	-4
158	-28	26	7	-2
157	-10	25	-95	-7
158	13	24	-68	-9
157	12	11	-13	1
158	15	-2	-9	4
157	45	6	11	5
158	23	14	6	0
158	48	-4	-3	1
157	1	-6	-4	3
158	-73	6	13	0
158	-154	10	41	-3
157	-129	27	64	-3
157	16	31	19	2
157	7	28	-39	9
158	0	32	10	11
158	-6	30	10	12
157	-8	19	-28	9
158	64	23	11	-1
157	43	34	17	-3
158	-40	54	6	-3
157	-72	32	20	-4
158	1	-6	59	-9
158	38	-30	72	1
158	97	-23	-25	6
157	132	37	-70	11
158	119	41	11	11
157	118	42	-8	7
158	5	52	-28	3
157	-32	9	44	-2
158	-43	25	26	0
157	-107	28	24	4
157	-124	10	4	-1
158	-25	16	-6	-9
158	80	27	6	-9
157	112	28	-7	-8
158	137	14	17	-7
157	197	33	14	-1
157	213	37	13	0
157	67	21	5	-3
158	-49	-20	3	-4
157	-17	-55	9	2
157	-30	-41	16	3
158	-112	-29	20	2
158	-39	-54	8	4
158	-32	-37	10	8
157	-48	52	2	10
158	-21	135	-3	9
157	-29	112	-2	4
157	46	39	5	7
157	39	46	20	10
158	-7	33	38	1
157	-48	3	36	2
158	-104	5	-11	0
158	-126	13	-44	0
157	-72	13	-26	-1
158	-10	15	-3	-5
158	-22	22	4	0
157	23	16	16	-2
157	35	23	6	5
157	45	19	1	4
158	42	25	4	1
158	22	18	3	9
158	-8	-5	40	4
157	-121	-13	87	0
157	-142	-1	68	0
157	-49	13	-30	2
157	-5	1	-61	4
157	51	5	-26	-4
158	125	33	-33	-6
