File Name: not saved
Channel 3: 'EKG', 22880 values, raw ADC, no filters.
Channel 4: 'FCR_EMG', 22880 values, raw ADC, no filters.
Channel 5: 'FCU_EMG', 22880 values, raw ADC, no filters.
Channel 7: 'ECU_EMG', 22880 values, raw ADC, no filters.
Channel 8: 'ECR_EMG', 22880 values, raw ADC, no filters.

158	-5	16	-9	-5
158	-3	22	-8	-5
157	2	23	-15	-6
158	6	24	-9	-4
158	-9	22	12	-3
157	-65	21	40	1
157	-96	19	60	-1
158	-30	15	63	-4
158	16	12	39	0
158	34	22	-55	3
158	79	24	-63	8
157	96	17	10	2
158	104	20	-9	3
157	71	16	24	0
157	19	14	71	0
158	-31	15	18	2
157	-52	21	-75	6
158	-21	24	-57	4
157	-14	17	29	-2
158	0	22	5	-4
158	20	21	16	-4
158	29	15	5	4
157	31	16	-3	-2
157	21	24	-11	-5
159	14	21	-30	5
158	11	19	10	3
158	6	23	5	9
157	-7	18	13	7
157	-7	19	15	1
158	-8	19	7	4
157	-8	18	15	1
157	-6	21	16	3
158	-7	18	20	3
158	-5	17	17	4
157	-4	21	21	7
158	-5	17	18	2
157	-2	18	13	0
157	0	17	12	3
157	-1	15	24	6
157	1	18	35	7
158	0	14	32	9
157	3	13	18	5
158	8	12	-3	-12
158	7	16	-48	-12
157	7	21	-94	-2
157	8	22	-48	-6
159	-3	18	-9	-6
158	-12	19	-16	3
158	-17	17	27	4
158	-7	15	69	9
158	8	18	49	10
157	17	20	22	4
157	22	17	37	8
157	22	17	42	7
158	22	13	36	2
157	20	13	7	-10
157	15	18	-8	-17
157	8	17	17	-16
158	-1	17	8	-17
157	1	18	2	-4
158	2	17	12	7
158	5	21	15	6
158	5	23	7	8
157	17	22	1	10
157	33	18	7	8
158	18	17	-7	-3
157	10	15	-2	-3
157	7	16	8	-1
157	-11	16	9	-9
158	-32	16	14	-4
158	-49	21	8	5
158	-25	24	8	4
158	18	29	8	2
158	27	26	2	9
157	15	23	-15	12
157	8	19	-23	8
157	3	17	-14	-5
157	-4	15	1	-8
158	-31	17	31	-1
158	-85	19	44	-1
157	-55	23	24	4
158	10	18	2	9
157	24	14	-6	14
158	58	14	4	13
157	81	15	23	2
158	93	17	19	0
157	82	16	-2	-1
158	53	19	-13	3
157	27	18	2	2
158	-11	21	13	2
158	-8	19	1	8
158	-2	15	1	12
157	-4	20	19	11
158	-2	19	38	9
157	-5	18	54	5
157	-6	17	16	7
157	-6	19	-61	18
158	-3	19	-12	13
157	-7	13	55	16
158	-7	17	44	16
158	-5	21	16	0
158	-7	22	-92	-1
157	-19	11	-59	-12
158	-22	8	-5	-32
157	-15	23	-51	-46
158	-28	22	-10	-39
157	-57	25	-1	-16
157	-43	26	11	-9
157	-9	19	24	2
158	-4	15	15	7
158	18	12	37	4
158	39	13	43	3
158	67	13	40	4
158	78	15	22	-2
157	65	15	15	-4
159	78	23	12	6
157	60	27	12	1
157	33	26	17	4
157	37	28	9	10
157	28	27	5	12
158	7	25	5	10
158	-2	18	13	10
157	-8	19	6	15
157	-14	16	3	16
158	-18	15	16	9
157	-19	15	25	3
157	-20	12	-1	5
158	-18	14	-9	-1
158	-15	15	20	-1
158	-16	13	1	2
158	-12	15	-9	-4
157	-10	18	8	2
157	-11	13	-2	5
158	-11	11	7	3
157	-7	9	3	1
158	-6	16	-7	-6
157	-12	17	14	-4
158	-12	14	37	-1
157	-9	17	26	0
157	-3	17	4	-5
157	4	13	18	0
158	14	16	27	8
157	19	23	21	3
158	19	19	-1	7
158	21	22	-3	7
158	15	20	4	8
158	10	18	-8	3
158	8	21	-2	0
158	0	18	-1	-2
158	3	19	8	-8
157	7	23	15	-13
158	3	21	15	-5
158	3	23	-1	-4
158	1	22	14	0
157	-4	19	20	11
157	1	19	-19	16
158	8	17	-4	14
157	2	20	5	-2
157	5	19	-12	-12
158	3	17	-22	-10
158	13	19	-21	-5
157	13	20	-6	-6
158	-8	19	-6	-10
158	-57	15	-4	-7
157	-82	15	7	-6
158	-18	12	12	-2
158	1	14	14	2
157	43	17	20	4
157	117	19	26	7
158	112	20	26	-1
158	93	17	21	-1
158	43	19	24	8
157	16	22	39	10
158	6	22	71	15
157	-31	18	112	11
158	-41	17	95	-1
157	-38	17	-14	-8
157	-7	21	-133	-1
157	11	23	-102	6
158	1	17	8	2
158	-3	15	41	7
158	-5	15	41	4
158	-4	15	-28	2
158	3	26	-70	6
158	5	21	28	3
158	-1	13	43	3
158	1	17	9	-6
157	0	15	-27	-1
158	-5	19	-40	8
157	-1	18	0	1
158	1	17	-6	-3
158	-1	17	20	3
157	-8	15	20	8
158	-3	15	14	5
158	-4	17	13	11
158	-1	21	15	7
157	-1	19	23	-1
158	-34	19	2	4
158	-41	16	13	0
158	8	17	12	-2
157	32	21	18	-10
157	44	19	21	-7
157	72	18	30	-6
158	84	18	10	-9
158	85	21	-17	-2
158	47	22	-28	4
157	43	17	-30	9
157	45	15	-5	7
157	-37	17	-11	6
158	-96	13	27	5
158	-73	14	62	7
157	-34	17	58	0
157	-56	15	38	-9
158	-40	19	29	-10
157	58	26	27	-13
157	106	27	18	-14
158	77	27	15	-12
158	41	25	-15	-4
157	-7	22	-3	-1
158	-59	18	3	0
158	-44	15	7	12
157	-13	13	17	10
158	0	16	0	14
157	9	11	-4	20
157	8	11	-7	14
158	30	19	6	4
157	55	22	6	5
158	43	22	-9	9
157	19	23	-6	2
157	-4	20	-3	2
157	-23	14	-3	3
158	-39	9	9	4
158	-44	11	13	-2
158	-40	19	17	2
158	-18	22	27	10
158	-4	19	27	12
158	-2	22	11	2
158	7	26	-23	-7
158	17	27	-8	-10
158	5	19	-14	-6
158	-5	16	-50	-5
158	5	19	-3	-7
157	4	16	5	3
157	8	12	-10	6
157	7	11	-12	2
158	2	14	-9	0
158	8	17	17	1
158	-1	21	24	3
158	12	19	37	-1
157	26	20	30	3
158	22	17	21	7
157	-3	17	8	0
158	-41	18	10	0
157	-60	17	20	2
158	-33	18	25	3
158	19	17	53	-7
157	43	14	50	-6
157	69	17	30	-1
158	72	21	28	-2
158	75	21	-22	9
158	72	25	-47	10
157	47	18	35	5
157	25	16	2	9
159	-5	21	-15	9
158	-17	14	6	6
157	-12	19	-40	1
157	-12	21	-7	2
157	-13	18	-28	5
157	-9	19	-20	-1
158	-12	18	6	-3
157	-11	18	-9	3
158	-13	20	-6	0
158	-17	20	7	-4
158	-11	19	31	-1
157	-7	21	5	4
158	0	21	5	9
157	3	17	6	8
157	3	15	-5	-5
159	0	14	-2	-5
157	-27	16	-4	4
157	-35	15	20	-1
158	22	15	40	-7
158	43	20	60	-6
158	38	21	55	-2
157	61	16	35	-1
158	41	19	8	-2
158	-5	21	15	-8
157	-10	19	36	-4
158	10	18	20	1
157	-53	15	10	2
158	-65	16	-13	10
157	-31	13	-17	12
158	-20	12	-3	8
157	3	18	5	0
157	11	26	6	-6
158	25	25	-1	-4
158	31	23	-10	-2
157	41	19	-8	1
158	37	19	-11	3
157	25	19	-42	16
158	16	14	-20	13
158	10	17	8	4
157	15	19	-7	5
157	8	15	5	-8
158	13	19	8	-8
158	22	18	29	-2
158	15	19	53	3
157	7	22	53	-1
158	3	20	22	-4
157	7	19	-15	3
157	8	17	2	1
157	-23	15	19	-3
158	-25	18	2	2
157	-12	17	10	0
157	-22	19	34	4
158	-8	19	8	15
157	-19	19	-20	13
158	-23	22	-7	2
157	2	22	15	-1
158	11	22	22	-5
157	8	17	22	-5
157	0	13	-10	2
157	10	15	-27	0
158	16	14	8	-1
158	20	15	32	3
157	39	13	30	1
157	47	11	-18	6
158	43	21	-54	10
157	13	22	4	2
158	-44	22	12	4
157	-93	22	-7	2
158	-74	22	22	-2
157	-88	17	16	-4
157	-80	15	18	-5
158	29	21	23	-5
157	83	22	22	-2
158	117	23	12	-2
158	135	22	-5	-8
158	121	19	-2	-5
157	111	22	-13	-5
158	57	22	-1	0
157	24	14	47	2
157	-13	12	52	3
158	-33	15	49	-1
157	-16	14	77	0
157	-24	14	-43	8
158	-17	25	-121	18
158	-19	21	-16	9
157	-32	19	-24	0
158	-38	19	-37	-2
158	-35	11	-19	-1
157	-29	13	-44	-2
158	-28	13	-4	-5
158	-15	15	12	0
157	-4	15	16	-4
158	8	15	4	0
157	17	17	31	7
158	15	14	58	10
158	19	18	56	2
157	26	21	75	-3
157	26	22	79	4
157	17	17	71	11
158	8	24	31	11
157	5	22	16	13
158	3	19	6	14
157	-1	16	12	6
157	0	17	37	2
158	-2	17	24	-1
157	-1	20	-3	-4
157	-2	18	13	-7
158	1	19	36	-11
158	1	19	20	-15
158	-1	15	-30	-14
157	1	21	-122	-6
158	-2	19	-138	-5
157	1	13	-87	-9
157	1	14	-45	-6
158	4	14	-8	-9
157	9	21	-34	-12
157	6	19	-29	-10
158	3	15	59	-4
158	5	21	71	11
157	11	30	22	18
157	9	26	41	15
158	7	18	48	16
157	7	18	25	20
158	6	17	29	13
158	5	17	20	9
158	1	16	18	6
158	3	16	45	-6
157	4	21	77	-12
157	-2	21	72	-12
158	-7	19	28	-6
158	-1	17	-14	-4
157	7	15	-24	3
157	16	14	-6	7
157	19	17	-8	2
158	22	23	-8	-2
157	20	24	-4	-7
158	10	19	-3	5
158	15	15	10	2
157	5	18	-1	4
158	-3	18	-15	15
157	5	19	-24	13
158	5	22	-32	16
157	5	21	0	24
157	4	19	31	26
157	1	15	16	24
158	0	13	32	27
158	-1	18	33	26
158	0	19	51	29
158	3	15	57	16
158	-1	15	12	0
157	2	19	-20	0
158	7	26	-62	-6
158	10	25	13	-27
158	8	18	30	-26
158	7	22	-7	-29
158	9	18	-11	-25
158	7	14	-45	-14
157	7	19	1	-13
158	5	21	29	1
158	5	13	56	2
157	-1	6	62	1
157	0	14	-34	3
157	5	24	-86	-5
158	3	18	-6	-30
158	5	14	29	-50
158	8	19	33	-47
157	7	18	40	-53
158	3	16	-12	-46
158	8	18	-6	-11
158	3	17	-1	9
157	4	19	10	27
157	4	17	-8	32
158	3	17	-35	31
158	3	19	-35	37
157	4	17	-69	33
158	4	11	-97	32
158	7	17	-119	36
159	8	19	-21	37
158	5	12	94	32
157	7	20	119	23
158	6	23	191	10
158	4	21	130	4
158	2	22	-3	-8
158	3	22	17	-31
158	13	23	43	-37
158	11	24	45	-18
157	9	19	61	-3
157	8	18	107	3
157	3	19	89	23
157	2	17	39	22
157	1	16	39	2
158	2	21	-8	-8
158	1	21	-36	-13
157	3	15	-83	-14
158	1	15	-131	-2
158	5	22	-126	18
157	8	25	-83	8
157	6	21	-64	-2
158	9	17	-60	-6
158	7	18	-15	-7
158	4	17	-7	-1
157	7	18	-23	6
157	8	19	-2	11
157	5	17	61	8
157	3	15	70	3
157	5	15	40	-1
157	6	18	39	-1
158	5	19	32	0
157	5	18	56	14
158	5	17	48	17
158	4	22	37	12
158	6	22	54	16
157	5	15	51	16
157	8	16	22	-1
157	8	18	8	-15
158	6	19	12	-9
157	4	17	1	-8
157	1	10	-6	-2
157	3	7	-33	3
158	4	14	-52	12
157	3	18	-65	30
157	5	22	-57	38
157	5	18	-6	47
157	7	24	17	51
157	9	25	51	39
158	5	19	70	12
157	3	12	52	-25
157	1	14	-5	-45
157	2	21	-65	-20
157	5	22	-39	-32
158	3	21	32	-56
158	5	18	22	-41
158	8	19	-3	-41
157	12	17	20	-42
158	5	14	-51	-50
158	3	19	-32	-59
158	5	22	-51	-54
157	1	18	-75	-35
158	1	17	101	-8
158	0	10	27	11
158	1	10	49	41
157	4	25	122	56
157	7	23	47	52
158	9	19	112	52
158	11	14	83	50
157	3	9	-6	47
158	-3	23	-84	25
158	-48	24	9	-11
157	-106	21	136	-41
157	-68	24	98	-92
157	-8	19	16	-92
157	20	19	-58	-37
158	63	20	-57	-20
158	90	16	-93	-4
158	106	17	-105	25
158	117	17	-14	39
158	94	18	80	38
158	53	25	2	34
157	6	22	-33	33
158	-22	13	29	21
158	-21	17	48	11
157	-15	17	87	16
158	-14	14	7	17
157	-25	13	-47	15
157	-35	11	-19	23
158	-20	22	-22	32
158	-11	21	0	27
157	-8	19	35	19
158	11	17	40	22
158	24	18	12	23
158	20	24	-3	18
158	5	27	-20	8
158	-12	24	-128	-1
158	-5	15	-196	-1
158	-13	15	-75	2
158	-24	19	-9	10
158	-20	22	35	33
157	-8	19	63	48
158	-1	21	32	50
158	0	24	68	41
157	1	17	24	35
158	-1	15	12	16
158	4	15	-2	-30
157	3	5	42	-54
158	4	13	93	-104
158	9	21	-6	-127
157	8	21	53	-111
158	10	25	128	-115
157	5	14	141	-70
158	9	13	69	-6
158	7	21	-29	39
158	5	20	-24	55
157	8	22	-48	61
158	5	22	-12	71
157	7	16	-2	66
157	7	14	3	70
157	10	15	41	42
158	8	10	95	7
157	12	15	119	-25
158	18	26	66	-61
158	18	30	26	-82
157	10	24	-20	-90
158	4	20	-23	-91
158	-5	14	-40	-85
158	-3	15	-56	-34
158	8	18	-82	-6
157	3	17	-92	4
157	1	15	-84	24
157	-7	17	-68	36
157	-12	13	-37	46
158	-8	7	-51	35
157	-12	8	37	34
157	-12	12	74	23
157	-9	20	-48	26
158	4	26	-43	31
157	8	20	3	25
157	12	21	-16	32
157	14	21	38	36
157	12	21	45	35
157	19	22	91	27
158	35	26	97	25
157	45	30	10	26
158	-3	24	22	24
158	-119	21	37	7
158	-137	12	-66	-2
158	-26	6	-133	-2
157	7	14	-23	-4
158	66	17	-16	-1
157	117	16	-29	1
158	133	22	21	9
158	156	18	63	5
158	120	20	3	-3
158	99	15	-131	0
158	47	21	6	5
157	-6	28	192	-9
158	-37	20	46	-14
157	-35	27	-145	2
158	-22	29	-57	8
158	-18	19	-20	11
157	-12	17	0	1
158	-24	15	41	11
157	-25	16	8	21
158	-25	20	136	4
157	-25	18	178	7
158	-24	15	200	7
158	-23	12	266	-9
158	-18	17	122	-6
158	-15	17	-24	-20
158	-14	-5	-87	-52
157	-13	8	-124	-55
158	-3	27	-79	-52
157	-7	15	34	-44
157	-3	19	34	-37
157	-2	18	13	-27
157	-2	21	78	4
157	2	21	22	37
158	0	21	-14	59
158	-1	15	-60	83
158	-3	12	-104	80
158	-7	19	-77	58
157	-8	17	-5	37
158	-6	14	16	15
157	0	9	-22	-7
158	5	10	-30	-30
157	14	21	-58	-57
157	31	26	1	-82
158	30	22	-33	-117
157	25	29	0	-104
158	20	28	53	-17
158	14	21	13	2
157	12	17	3	-1
158	5	8	-78	-16
157	-2	7	-124	-14
158	-1	23	-106	21
158	1	18	116	15
157	1	9	188	16
157	3	14	56	14
158	2	15	-52	25
158	4	22	-70	16
158	7	16	10	11
157	16	21	9	23
158	17	25	111	31
157	10	21	144	39
157	11	23	77	23
157	7	23	4	27
157	12	28	-29	27
157	-4	25	-9	15
158	-4	19	-59	10
158	17	11	-77	12
159	0	17	-145	7
157	-33	17	-108	12
158	-52	9	23	14
158	-55	11	-9	-3
158	-86	14	15	4
158	-83	17	240	8
158	-36	18	226	10
157	-6	24	21	11
158	80	25	82	5
157	167	19	129	4
158	189	17	166	2
158	148	15	4	0
158	102	21	-161	-2
157	54	18	-69	-5
157	2	19	-66	-2
158	-45	24	-45	-7
158	-65	16	-36	-17
157	-18	15	12	-16
157	-21	18	36	-9
158	-13	19	13	6
158	2	26	13	3
157	-7	23	-10	-3
158	1	22	-46	-1
158	-2	19	-71	5
158	1	19	35	15
157	-10	17	66	15
157	-18	14	-16	14
157	-32	17	-48	17
157	-48	15	-52	11
157	-12	12	15	11
158	22	9	93	9
157	9	13	-6	-7
158	-3	14	-69	-9
157	3	19	4	-17
158	2	23	2	-23
157	8	17	42	-29
158	8	19	81	-25
157	26	19	111	-12
157	24	19	131	2
157	-4	18	67	5
158	0	18	6	3
158	-8	19	-80	17
158	-9	18	-115	13
157	-1	15	-75	0
158	-3	17	40	8
158	4	15	41	19
157	3	15	-96	6
157	14	32	-11	-18
158	14	32	21	-46
158	11	25	-45	-60
158	13	17	47	-22
158	9	9	-10	-1
158	5	13	-82	2
158	7	15	-20	2
158	8	13	-29	-20
158	9	22	21	-23
157	7	14	131	-16
157	0	13	95	7
157	-2	13	60	31
157	0	11	2	27
158	4	27	-122	35
157	10	28	3	34
157	7	20	99	24
157	2	20	27	25
158	-7	19	-30	21
158	-18	24	-126	30
157	-5	25	-104	35
157	8	19	-105	14
157	7	13	-120	-7
157	12	10	74	-32
158	15	2	236	-67
157	27	11	212	-63
157	26	26	105	2
157	14	21	20	20
157	7	22	5	8
157	6	18	47	21
158	7	17	-1	8
157	3	25	10	-3
158	-2	18	45	-8
157	-9	11	19	-12
158	-26	16	12	-7
158	-67	21	0	4
157	-50	20	8	1
158	5	20	-15	0
157	11	15	-1	-4
157	38	22	-15	-2
158	81	25	-61	20
158	87	20	-30	17
157	43	14	112	23
157	16	15	86	11
158	29	17	-111	4
158	17	22	-73	9
158	13	31	-36	-3
158	23	22	-48	-2
158	27	25	-43	-4
157	-5	24	-42	-3
157	-64	19	40	0
158	-74	12	50	11
158	-44	9	-44	13
158	-17	8	-31	9
157	17	14	72	6
158	38	17	57	1
158	49	11	13	10
158	52	24	20	4
158	46	25	10	-2
158	51	30	-22	8
158	58	26	31	5
158	35	22	62	2
158	-8	26	32	9
158	-7	15	43	12
158	-14	10	-12	4
159	-63	11	-62	-8
157	-120	14	-41	-5
158	-75	11	45	-1
158	4	9	21	3
158	-9	14	-36	-2
157	5	22	-32	2
159	32	23	-56	6
157	5	21	44	-7
158	-9	17	74	3
158	1	15	89	5
158	-3	18	48	9
157	-5	15	-18	2
158	-11	19	53	-6
157	0	16	12	-9
158	18	17	-67	-15
158	-6	20	0	-8
158	-11	13	102	-10
158	0	18	-11	-3
158	16	22	-18	0
158	13	19	5	7
158	-20	21	0	10
158	-54	20	61	10
157	-12	21	3	4
158	26	9	18	0
157	27	11	-3	9
157	77	15	-51	3
158	88	15	-124	4
157	71	22	-147	11
157	49	17	-70	7
157	39	19	20	7
158	42	18	118	8
159	24	20	218	-1
158	5	25	224	-16
158	-5	19	7	-37
157	-13	20	-104	-41
159	-25	21	-74	-20
158	-19	18	4	-17
157	-14	19	31	-17
157	-13	15	39	-5
159	-9	23	13	-10
158	-10	27	-68	-9
157	-16	19	34	-3
158	-46	16	125	1
157	-59	15	23	12
157	-13	22	-109	16
158	29	21	-67	25
157	24	18	-43	25
157	37	17	-65	29
157	38	11	-34	33
157	43	16	38	26
157	40	22	94	26
157	7	23	71	27
159	1	18	81	21
157	-13	13	-16	2
157	-43	14	-126	-8
158	-42	14	-46	-5
158	-41	17	8	-7
158	-27	17	34	-21
157	1	12	70	-29
158	10	17	39	-28
158	35	21	68	-12
158	44	20	37	-14
158	42	17	-62	-18
158	39	16	-75	-14
157	30	18	-83	-12
157	36	25	-14	-7
157	35	21	109	0
157	23	21	126	16
157	15	26	173	7
157	1	23	115	19
157	-5	24	52	22
158	-9	14	2	15
158	-12	15	-106	31
158	-5	19	-78	24
158	-9	15	-82	27
158	-6	19	-77	35
157	-2	19	-53	39
158	-5	13	-32	11
158	-4	14	-19	-21
157	-3	12	-7	-55
157	-6	16	2	-64
158	-8	24	-25	-24
157	-11	16	13	-11
158	-2	13	53	-4
157	7	15	43	2
158	10	22	21	-2
157	7	22	30	-9
158	3	18	10	-3
157	-5	17	6	7
158	0	18	36	18
158	15	19	69	24
158	14	15	64	20
158	12	17	-19	20
158	-18	24	-72	10
157	-73	23	-4	9
158	-50	15	53	21
157	1	13	-44	21
157	19	16	-43	14
157	61	18	-12	10
158	75	17	-51	-1
157	67	17	43	-12
158	47	15	172	-32
158	19	21	111	-39
157	28	28	-3	-23
158	13	21	-7	-15
157	49	19	-10	1
158	99	24	4	10
157	-2	17	9	3
158	-100	14	1	8
157	-102	10	-12	4
158	-97	13	-11	4
157	-67	14	33	3
158	-44	22	36	7
157	41	20	-12	7
157	101	14	-5	12
157	73	18	22	4
157	61	24	18	-1
158	23	30	8	-5
157	17	31	-10	-11
157	18	33	-16	-3
158	7	27	6	-1
157	-7	22	14	0
157	-8	19	-3	-1
158	-8	16	23	3
157	-17	10	-7	6
157	-6	10	-77	4
158	3	13	-53	11
157	9	17	-9	16
158	5	15	13	20
157	-3	14	-3	26
158	-16	9	-23	23
158	-34	11	-5	17
157	-35	18	10	24
158	-8	22	32	13
158	3	19	98	-16
157	7	23	55	-32
158	5	26	-11	-57
158	-7	23	17	-52
158	12	16	33	-17
158	17	11	122	-8
157	18	15	54	0
158	23	14	-31	6
158	28	15	87	2
158	41	22	55	9
157	38	25	-97	21
158	26	24	-180	25
157	9	20	-102	37
158	4	22	22	33
158	-4	16	99	28
158	-9	15	77	27
157	-11	19	5	3
158	-10	21	-18	-9
157	-9	16	-100	-18
158	-2	12	-70	-37
157	13	12	-63	-48
158	15	6	-107	-50
158	13	13	51	-49
157	14	15	53	-29
157	12	24	42	-14
157	8	33	164	9
158	-5	22	58	16
158	-5	23	43	15
157	8	19	23	23
158	4	16	-70	1
157	-1	17	0	5
157	-4	13	-25	20
157	-10	7	-38	12
158	-4	15	29	18
157	-3	22	72	23
157	-7	17	37	26
157	-3	19	78	24
157	0	17	157	10
157	3	17	124	0
158	7	15	-2	0
157	8	14	-71	-4
158	15	22	-51	-15
158	25	25	-66	-12
158	18	29	-14	-9
157	-1	26	-6	1
157	2	25	36	9
157	10	24	6	9
157	5	21	3	16
158	9	11	-1	13
157	3	9	-71	19
157	4	6	48	24
158	16	11	29	24
158	26	14	-22	22
157	20	21	-96	19
158	5	25	-104	16
158	0	24	17	-2
158	-1	23	64	-4
157	-2	16	77	-15
158	5	17	66	-37
158	12	15	156	-36
157	10	31	56	-32
158	1	28	-44	-30
157	-2	16	-42	-34
158	-13	14	-106	-25
158	-13	8	-77	-12
158	-5	11	-74	0
157	10	13	-19	13
157	-7	17	-5	16
158	-68	20	-5	21
157	-60	18	35	17
157	-31	17	5	9
157	-56	21	-53	13
158	-3	23	-38	8
158	62	17	67	-9
158	81	12	134	-4
157	105	16	141	3
158	90	19	-3	10
157	79	18	5	11
158	41	21	44	9
157	19	23	-24	6
157	15	21	34	9
157	-1	21	26	21
157	-5	18	-16	21
158	-4	18	-50	22
158	1	16	-3	12
158	8	21	-1	2
157	15	25	-13	-8
158	3	17	25	-13
158	-9	14	-26	-10
157	-14	18	-68	-20
158	-10	18	-29	-17
158	-15	10	63	-13
158	-13	15	86	-16
157	-8	18	42	2
157	-27	21	-5	15
158	-39	16	0	9
157	-38	11	-55	4
159	-15	17	-82	-2
158	49	21	-12	0
158	105	22	3	-1
158	91	18	66	-4
157	75	16	56	1
157	49	15	15	-14
157	-22	9	78	-18
158	-116	10	140	-7
158	-175	26	133	2
157	-56	30	6	10
158	19	25	-4	11
157	-16	24	8	21
157	0	18	19	29
158	-7	15	90	24
158	1	19	-57	15
158	13	19	-91	12
158	15	17	-10	16
157	21	20	43	17
158	16	21	60	16
158	22	21	-25	1
158	17	16	3	-28
158	16	7	-40	-42
158	21	15	-156	-50
158	22	19	-73	-33
158	18	17	10	-4
158	16	22	-43	3
157	14	15	-75	13
158	3	12	-86	15
157	1	9	97	8
157	2	6	247	26
158	8	25	34	33
157	12	24	-102	13
157	10	11	-94	3
158	13	13	-127	4
157	12	17	-43	-15
158	8	21	140	-30
157	7	15	191	-29
158	5	23	85	-25
158	2	25	-16	-16
157	-6	17	-82	-13
158	-14	19	-22	2
158	3	19	45	7
157	3	19	10	15
157	-47	25	6	26
157	-92	22	-2	19
158	-68	11	12	32
158	-6	12	-6	28
158	26	19	16	17
157	96	20	39	5
157	145	24	13	0
157	107	25	57	1
158	79	16	104	-12
157	39	15	90	-13
157	9	19	0	-8
157	-16	21	-72	9
157	-28	18	-63	11
157	-13	19	-68	13
158	-11	25	-63	22
157	-8	23	-36	12
158	-8	17	-2	7
157	-7	12	91	16
158	-4	17	96	8
157	-7	20	-62	-8
158	-6	26	-87	-10
157	-12	25	2	-18
158	-27	16	-14	-19
158	-47	14	30	-34
158	-42	13	30	-35
158	-24	17	18	-12
158	-10	18	25	-9
157	10	16	29	-16
158	23	14	48	-12
158	40	21	-1	-2
158	51	25	32	7
158	44	23	129	21
157	35	17	147	16
157	7	15	89	20
157	-40	15	45	22
157	-43	16	-37	20
158	-4	21	-51	27
158	19	22	-40	27
158	55	16	-148	20
157	62	14	-118	-5
158	52	11	-68	-8
158	49	8	-129	-1
158	26	24	-54	-2
157	9	17	35	-16
157	-15	15	60	-18
158	-25	24	144	-7
158	-27	21	115	-10
157	-24	25	-10	-16
159	-17	23	-53	-12
157	-17	17	-8	-10
158	-17	19	33	-3
157	-17	17	65	10
159	-25	16	49	11
158	-29	16	78	6
157	-18	7	99	-1
158	-4	9	56	10
157	16	16	17	8
158	33	19	-10	10
158	48	22	-18	17
157	53	26	-66	21
158	38	25	35	31
158	11	17	101	39
157	-9	14	43	35
157	-4	17	28	9
157	-5	20	-11	-9
157	-15	24	2	-26
158	-6	27	-32	-21
157	-10	22	-92	-26
158	-11	19	-115	-18
157	-3	22	-150	7
158	4	22	-107	1
158	15	16	-9	-12
159	11	10	29	-36
157	11	14	-4	-41
158	1	17	-24	-27
157	-16	14	21	2
157	-10	22	3	18
157	-2	21	26	9
158	0	10	70	14
157	8	0	61	28
157	15	3	123	32
157	29	21	87	7
159	39	28	-45	2
158	28	26	-57	-9
158	16	19	4	-21
157	12	17	111	-9
157	14	25	84	-2
158	5	19	-47	-9
157	-2	17	-6	-14
158	-1	18	-51	-21
157	4	16	-52	-8
158	9	20	-28	9
157	3	22	-10	11
158	0	25	31	24
158	-4	22	-43	31
158	-38	24	-43	36
157	-84	22	-35	36
158	-52	21	-34	27
158	4	21	-26	13
158	17	21	87	1
157	54	9	167	-11
157	74	14	72	-11
157	84	21	16	-7
157	71	20	45	-4
157	35	11	25	-1
158	0	5	43	3
157	-40	15	100	13
157	-42	18	-16	11
158	-12	19	-25	8
157	0	17	-30	-1
157	12	13	34	-10
158	41	17	47	-25
158	45	23	-72	-13
158	42	26	35	6
158	22	24	40	11
157	25	14	101	13
158	-5	7	104	10
158	-36	18	-27	18
158	-13	24	3	17
158	-16	21	-48	13
158	-13	24	-97	-9
157	-9	21	-49	-28
158	-7	23	-45	-28
157	-3	19	-26	-21
157	-6	14	-24	-21
158	1	21	-45	-19
157	2	24	-27	-24
157	7	25	-12	-27
158	1	19	56	-21
159	-2	9	51	-15
157	-1	14	-32	2
157	5	18	45	20
158	-1	11	124	17
157	-8	15	75	15
158	-3	14	92	4
157	-6	10	24	9
157	0	10	4	15
157	-1	5	-61	21
158	-5	21	-155	25
157	-11	22	-73	26
157	-10	11	-80	30
157	-8	15	-43	23
158	-1	21	-64	19
158	5	19	-38	-5
157	17	23	-54	-18
157	24	24	-55	-30
158	30	23	7	-31
157	50	29	44	-29
157	53	27	208	-23
157	56	26	252	-1
158	25	24	208	4
158	-6	17	1	10
157	3	21	-50	15
157	4	22	-83	9
157	15	17	-148	15
157	18	17	-23	16
157	15	15	-8	8
158	20	16	100	11
158	17	15	71	14
158	7	16	37	15
158	-18	15	25	-1
158	-29	21	10	1
157	-26	12	49	1
159	-72	11	-19	-1
158	-120	21	-25	5
158	-57	22	-35	3
158	-1	24	-3	-2
157	9	19	47	-10
158	54	17	80	-7
157	70	17	10	-1
158	80	18	-67	10
158	66	18	-34	2
158	38	16	-7	3
157	18	12	42	11
158	-6	13	24	23
158	-6	20	-12	29
158	-1	24	16	31
157	5	22	6	38
157	3	21	-61	17
158	-4	24	-133	2
157	-7	25	-72	-17
157	-17	19	104	-30
158	-13	18	116	-30
157	-5	13	28	-9
158	0	14	121	-11
158	18	25	252	-31
157	21	21	155	-27
157	11	17	-40	-18
157	4	17	-89	-3
158	-3	21	-7	0
158	-19	17	33	7
158	-61	12	-18	0
157	-58	9	120	-10
158	-17	15	66	-1
158	8	18	-249	-2
158	35	21	-328	-4
158	60	36	-197	-14
158	63	22	-74	-19
158	56	16	21	-13
158	43	22	129	-3
158	33	23	52	9
157	15	22	62	12
157	10	19	86	16
158	51	13	31	15
157	67	13	72	25
158	26	17	40	22
157	8	8	10	11
157	-29	5	-4	9
157	-88	18	-85	7
157	-154	22	-178	2
157	-166	24	-111	8
157	-4	26	-55	3
157	51	19	-36	-8
158	-5	24	49	-1
157	28	25	137	2
158	16	21	154	9
158	26	16	66	11
157	55	14	91	10
158	65	16	101	6
158	59	14	10	-4
157	12	23	-51	-12
157	7	21	2	-7
157	-9	17	58	0
157	5	16	4	8
158	9	15	-36	18
158	-3	21	-65	16
157	-5	18	30	15
157	-17	17	58	7
157	-9	14	-15	0
158	-6	14	-28	-4
158	6	19	-17	-12
157	7	18	4	-1
158	9	16	-16	-2
157	20	19	20	-7
157	21	21	46	-9
158	18	14	92	-13
157	9	12	43	-5
157	8	13	-47	6
158	-13	19	-5	15
158	-59	15	92	7
157	-70	15	70	8
157	-4	16	-68	5
158	12	10	-1	-16
158	29	9	28	-16
157	67	19	47	-2
158	70	26	53	-9
158	66	26	-54	-24
158	21	26	-47	-38
157	10	17	-13	-45
158	-1	24	1	-22
158	-17	23	-11	4
157	11	22	-5	23
158	20	28	-3	31
157	-24	22	-26	26
158	9	22	-46	22
157	81	18	-51	17
158	56	20	-67	13
157	41	18	-9	7
158	0	9	145	-13
157	-32	13	145	-15
157	-64	23	5	-1
157	-112	19	29	7
158	-22	19	32	16
157	4	22	-44	23
158	-18	17	46	17
158	-6	8	125	3
157	-24	14	8	19
157	-2	19	-104	12
159	-1	11	-26	-8
157	5	18	-82	-18
157	10	21	-58	-29
157	11	19	2	-18
157	13	14	10	6
158	10	11	32	16
157	-13	17	-86	27
158	-63	17	-36	26
158	-50	17	0	12
157	16	15	-9	4
157	44	18	-58	-4
157	67	16	-95	3
158	111	9	-44	-1
158	116	10	-13	-16
157	85	14	107	-8
157	21	18	195	-1
158	-2	29	225	5
158	-4	38	91	14
158	-9	30	32	18
158	4	29	63	9
158	-10	25	32	10
157	-22	16	14	10
157	-44	17	-61	-4
157	-54	18	-35	-13
159	1	29	-33	-1
157	74	28	-2	0
157	42	13	24	0
158	23	11	10	9
158	16	5	24	14
158	-36	13	-28	6
158	-75	20	4	6
158	-90	24	66	11
158	-4	21	13	-4
158	-20	15	-15	-19
158	-65	15	-11	-37
157	-55	19	-45	-32
157	-88	24	-46	-25
158	-13	22	-78	-14
158	106	22	3	-8
158	163	10	104	-13
157	190	6	60	-15
158	136	15	-8	-20
158	66	23	-55	-12
158	-18	11	38	-10
158	-81	7	-9	6
158	-63	24	-132	11
158	-44	30	-160	19
158	-5	29	0	27
159	-12	24	174	22
158	-5	24	48	30
158	-21	15	27	21
158	-33	19	9	20
158	2	23	29	32
157	-17	11	42	24
158	-35	10	-16	17
157	-61	12	12	16
157	-44	14	15	7
157	-7	13	64	3
158	14	15	91	-8
157	20	13	98	-17
157	33	20	-63	-18
158	50	24	-58	-28
157	38	15	43	-24
158	19	24	-7	-7
158	-6	26	9	0
158	0	17	-35	12
157	33	17	5	8
158	36	18	8	5
158	27	23	-91	13
157	19	25	-139	16
157	8	25	-106	32
158	13	24	-7	39
158	8	20	16	33
157	5	17	123	20
158	5	15	204	4
157	3	16	165	-11
157	12	16	66	-28
158	13	16	-44	-39
158	10	17	-105	-63
158	6	11	-179	-69
158	-10	6	-146	-38
158	-36	14	-50	-6
158	-27	22	68	7
158	-3	15	184	-3
158	8	9	202	-3
157	25	12	66	-9
157	26	16	-67	-10
158	42	24	-6	10
158	63	25	20	20
157	34	17	15	26
158	7	14	103	28
158	-11	15	138	33
157	-22	22	28	32
158	-10	20	-23	25
157	-11	14	8	12
158	-8	9	-108	2
158	1	14	-75	3
157	0	19	44	-5
158	-3	13	-20	-14
157	-5	17	-37	-14
157	16	15	-26	1
157	14	13	16	14
157	-6	17	44	8
157	-63	18	-51	24
158	-93	21	-66	28
157	-13	13	-42	2
158	26	26	-68	-24
158	33	28	-10	-16
158	99	25	24	-11
157	83	30	44	-13
158	26	30	80	-1
157	68	28	22	7
158	60	22	-22	18
158	-21	14	3	15
158	-44	13	60	6
158	4	21	33	-16
158	12	22	-9	-22
157	-28	17	-11	-11
158	-1	19	72	-6
158	-13	17	77	9
158	-8	12	-3	2
157	-1	11	32	-1
158	15	18	-58	-2
158	43	19	-121	3
157	15	24	-75	9
158	5	18	26	6
157	-8	12	63	9
158	-6	19	-50	14
158	-10	17	-27	7
157	-21	14	-30	-2
158	-24	21	15	-1
158	1	23	111	7
158	25	22	27	2
157	9	22	64	4
158	14	13	145	12
157	6	11	99	-4
158	-9	13	8	-8
157	-13	10	-67	0
158	-20	15	-27	1
159	-10	7	40	0
157	-21	13	66	12
157	-13	23	32	11
158	22	27	-114	1
158	10	32	-104	9
157	9	29	25	9
157	13	23	8	-1
158	7	22	17	-17
158	14	19	-36	-24
158	11	15	-96	-32
157	5	13	-37	-33
158	-15	8	20	-13
157	-7	8	95	0
157	10	16	48	10
157	11	14	25	18
158	18	14	86	26
158	22	12	122	25
158	28	13	94	26
158	30	17	38	28
158	18	17	41	16
158	13	19	-70	4
157	21	23	-39	2
158	13	25	53	-4
158	-19	21	-86	-28
158	-92	-10	-84	-35
158	-105	-45	-37	-30
157	17	-41	-64	-36
158	70	-37	-4	-29
159	68	-34	17	-10
157	112	-18	-8	-2
158	83	-4	-39	23
158	30	4	32	37
158	-26	6	66	24
158	22	23	35	19
158	23	11	72	9
157	-52	5	47	-18
157	-22	23	33	-28
158	-39	34	-60	-5
158	-28	40	-135	-4
158	-5	33	-89	1
157	-20	42	-11	16
157	-20	47	-4	20
158	-11	46	23	6
157	1	44	81	-5
157	11	43	50	-6
157	44	48	43	2
158	63	54	7	9
157	35	51	26	7
157	8	47	46	9
158	-6	44	28	12
158	-18	41	12	19
158	-11	39	-38	21
158	-5	40	-32	23
158	-3	34	-26	16
157	3	32	-46	11
158	7	32	-14	11
157	10	34	64	9
158	20	37	95	9
157	22	32	108	4
158	12	31	88	6
157	10	27	-31	7
158	-10	24	-12	3
158	-16	23	-9	-9
158	-15	24	-42	-18
158	-20	21	1	-23
157	-13	21	-24	-29
157	-7	19	29	-22
158	-3	17	93	-12
158	1	12	84	-5
157	14	12	-43	0
157	45	22	-116	11
158	49	21	12	4
159	40	14	24	5
157	37	15	-11	5
158	8	9	8	-5
158	-33	13	-1	-10
157	-66	15	12	-4
157	-49	21	2	2
157	-41	18	-25	2
157	-57	12	-45	13
157	-20	14	-39	10
157	25	13	-30	12
157	47	14	24	4
158	61	15	49	9
158	67	19	-4	15
158	58	20	43	18
157	33	19	46	16
157	22	19	-10	-4
158	17	18	10	-2
158	13	17	10	-9
157	11	17	25	-37
158	11	13	53	-45
157	11	8	84	-39
157	11	17	23	-19
157	8	21	-61	3
157	-1	11	17	-2
158	0	11	-16	-1
158	1	16	-13	7
158	-4	10	19	10
158	-15	16	-33	13
158	-62	13	19	15
158	-86	10	6	16
158	-24	12	24	9
157	10	16	4	7
158	3	15	0	4
158	0	8	24	4
157	19	12	0	8
157	60	15	-1	10
158	57	16	-18	10
157	73	19	20	11
158	55	17	28	8
157	31	17	12	4
158	41	16	16	9
157	8	11	20	6
158	-5	12	24	2
158	-9	11	30	-1
158	33	9	19	-7
157	56	18	-25	-10
158	14	22	18	-14
157	-5	25	16	-13
158	-39	28	-64	8
158	-63	22	-87	6
157	-106	21	-105	8
159	-78	29	-57	10
157	8	30	23	0
157	-14	23	4	7
157	-13	22	-47	7
158	-13	18	35	9
157	-30	15	171	14
157	-20	14	150	10
157	-11	15	208	-2
157	9	9	265	-18
158	16	9	156	-23
158	27	13	-88	1
157	38	23	-244	15
158	46	19	8	8
157	38	13	90	10
158	24	19	-15	-3
157	15	16	-132	4
157	9	10	-171	2
158	8	17	-90	-2
158	6	17	-19	13
158	8	13	-11	19
158	9	22	-165	31
158	12	21	-120	19
158	10	17	48	0
158	5	18	102	-4
157	6	16	-37	-13
158	3	14	17	-33
158	7	14	134	-39
158	10	19	125	-38
158	7	14	95	-39
158	7	15	-16	-25
158	12	20	8	-18
157	5	16	10	-20
158	8	21	21	-14
158	8	22	26	6
157	5	19	36	9
158	4	19	-4	16
158	-2	21	-50	23
158	-1	17	-34	22
158	3	19	-26	22
157	0	19	32	18
157	-1	16	50	19
157	-1	15	37	13
157	-28	19	-2	10
157	-86	20	35	19
157	-69	21	49	11
157	-7	14	13	4
158	14	17	-45	-3
157	48	19	-60	-3
158	79	15	17	-2
157	92	14	43	-1
157	98	19	63	3
157	47	22	54	-4
158	-5	22	31	2
157	-13	22	-17	3
157	-12	19	-48	6
158	-14	23	-71	16
158	-11	14	-64	18
157	-3	17	-7	18
158	12	24	27	8
157	20	17	117	2
157	22	19	113	-1
157	24	23	59	-2
158	20	25	29	-6
158	16	22	-35	-6
157	7	25	-3	-6
157	-5	20	-13	-3
158	-8	17	-46	8
158	-14	13	-7	16
158	-20	19	-5	9
157	-17	19	9	4
158	-17	9	4	26
158	-9	7	-28	3
158	-4	14	-15	-25
157	-1	19	-15	-26
159	5	18	-31	-32
157	14	23	-34	-16
157	9	16	-27	-6
157	0	16	-10	-1
158	0	14	14	0
158	-3	11	49	0
158	-9	15	74	0
157	-6	14	57	-1
157	7	17	7	7
158	16	21	-13	-2
158	12	28	19	-6
158	9	26	40	-1
158	2	16	18	0
158	5	13	-21	15
157	16	24	-68	13
158	15	22	22	4
158	8	19	45	14
158	-2	24	-67	15
157	-8	15	-2	17
158	-9	17	12	17
157	-13	14	-12	15
158	-8	11	-12	20
158	5	13	31	4
158	18	17	82	0
157	28	26	1	-4
158	19	25	23	-4
158	-4	18	32	1
159	-11	12	-42	9
158	-7	13	-97	15
157	-4	17	-39	-21
158	5	17	5	-40
157	15	19	-57	-11
157	22	15	-8	-1
158	23	9	116	-25
157	29	16	146	-40
158	32	12	49	-29
158	25	22	13	-35
157	13	26	43	-35
157	-1	18	136	-16
157	-2	19	145	1
159	-3	16	-59	22
158	0	23	-72	27
158	3	19	30	20
158	1	19	2	14
158	3	24	41	20
158	0	21	37	31
158	-2	18	70	30
157	-3	13	97	31
158	4	22	24	34
158	8	22	2	9
158	4	22	-55	-22
157	4	19	-108	-29
158	-11	17	-111	-26
157	-15	17	-26	-22
158	-6	11	47	7
158	0	14	-26	13
158	7	23	-124	4
157	12	19	-79	4
157	23	18	-59	9
157	31	24	-22	17
158	22	15	6	18
158	10	13	-6	7
158	3	18	-4	-7
157	0	15	57	-20
159	3	19	149	-32
158	7	27	29	-12
158	10	26	1	-1
158	3	19	6	15
157	-2	14	-44	28
158	-3	14	18	17
157	-6	15	92	10
158	-11	20	92	2
158	-9	14	-18	-2
158	-5	10	-63	-1
157	-9	17	-66	1
158	-17	24	-26	11
158	-3	25	-3	10
157	11	20	-22	9
157	17	19	-27	4
158	14	14	-6	-6
157	8	14	107	9
158	26	19	69	11
158	51	29	-20	14
158	43	36	25	24
158	15	18	45	11
157	1	14	51	4
158	7	15	17	-4
158	1	13	-49	-6
157	-2	15	-9	-11
158	-1	11	12	-16
157	11	16	-41	-15
157	28	25	-5	-7
158	20	24	93	-5
158	6	19	21	-1
158	0	23	-57	4
158	1	16	22	-3
158	-5	13	30	-8
157	-5	17	29	-6
158	-5	16	41	-14
158	-9	12	38	-12
158	-14	13	15	2
157	-8	16	-1	1
158	-2	15	3	-3
158	2	22	-31	-10
158	1	23	0	4
158	-2	22	29	12
157	0	23	57	16
158	-5	17	97	13
157	-18	17	70	9
157	-14	16	53	24
158	0	17	48	14
157	3	15	39	0
158	5	9	-18	3
158	12	15	-80	4
158	25	21	-80	0
158	26	17	-110	5
158	15	10	-89	6
157	19	17	-80	-10
158	15	23	-97	2
157	8	26	-5	4
158	3	18	1	-5
157	2	18	-6	-6
158	5	20	1	-13
158	7	17	-14	-21
157	7	22	15	-14
157	1	19	53	-9
157	-1	17	84	-11
157	-3	23	-75	-4
158	2	30	6	1
158	7	27	131	26
158	10	19	83	47
158	14	11	185	28
157	7	10	129	13
157	1	13	-54	7
157	3	17	-173	-11
158	8	22	-77	-28
158	3	17	-4	-33
158	0	16	-24	-31
158	3	19	44	-15
158	-6	17	61	-2
158	-19	17	8	-1
158	-20	22	30	4
157	-8	21	39	14
157	-5	23	-8	21
157	-4	16	-14	29
158	11	15	-106	27
158	30	19	-98	16
158	39	15	21	10
157	37	17	133	2
158	37	23	117	-1
158	34	23	63	-2
158	30	21	94	-6
157	21	19	47	-12
158	14	13	62	-18
158	7	18	-43	-10
158	-3	24	-72	5
157	1	16	4	11
157	-11	19	-65	14
157	-29	16	-26	22
157	-17	14	-23	17
159	-9	16	-25	11
157	-6	12	6	3
158	-14	11	21	6
157	2	11	46	3
157	53	19	14	-2
158	51	26	18	-1
157	14	29	58	-8
158	-9	27	58	4
157	-22	23	-28	14
158	-23	25	-68	11
157	-15	12	1	1
158	-6	9	-19	2
157	3	13	-17	-11
158	7	5	94	-11
158	9	15	58	-7
157	13	24	-63	-25
157	11	19	-5	-30
157	10	17	58	-12
157	1	16	38	4
158	-5	15	25	-1
158	-17	17	-18	14
158	-20	17	-31	18
158	-6	9	-78	4
158	5	15	-101	-2
158	16	18	-12	2
157	20	25	19	-2
158	22	21	16	-1
158	32	17	37	-15
157	30	20	-16	-22
158	17	27	-15	-12
158	14	31	1	-9
158	7	21	-59	8
158	5	19	-5	10
158	4	17	40	10
158	7	18	39	13
158	3	19	63	14
158	-1	15	49	12
158	-2	15	11	10
158	-5	11	15	13
157	-5	10	43	12
157	-11	8	-8	17
158	-11	15	-135	15
158	-11	21	-151	10
158	-12	14	-34	1
158	-5	15	23	0
157	2	18	127	4
158	15	24	236	-8
157	24	28	236	-19
157	25	33	128	-14
157	30	37	28	0
157	26	34	-15	15
157	9	25	-75	18
157	0	22	-67	18
157	2	20	-89	18
158	1	15	-109	17
157	3	12	-122	11
157	5	15	-41	10
157	8	13	95	-1
158	3	9	110	-22
158	0	7	61	-17
157	-2	15	39	-10
157	0	22	1	-6
158	0	17	-19	2
158	3	22	64	2
157	7	23	151	0
158	3	17	35	-10
159	3	18	-39	-18
158	2	21	28	-12
158	4	21	21	-16
158	4	19	79	-6
158	3	17	55	-2
158	4	12	39	-6
158	-3	10	45	6
158	-1	11	-18	0
158	1	13	-113	2
157	5	15	-141	14
158	7	17	-48	-2
158	7	14	-11	-30
158	11	19	13	-42
158	1	22	-59	-32
158	-12	17	-98	-31
158	-11	14	-117	-16
157	-6	17	-104	13
158	1	26	71	23
157	8	15	28	44
158	11	14	-70	59
158	23	15	-28	34
157	29	15	8	10
158	30	21	45	16
158	22	15	82	13
157	16	22	39	20
158	15	26	-108	27
157	14	24	-59	15
158	6	18	54	8
158	3	17	87	2
157	0	18	118	-3
157	0	17	36	-22
158	-2	19	58	-34
158	-2	15	-8	-15
158	2	15	-170	8
157	-1	11	-110	-8
157	-17	10	-4	-15
156	-24	17	134	-5
158	-6	16	297	-9
157	-17	17	218	-6
158	-58	26	34	9
158	-56	26	4	20
158	-2	13	1	24
158	15	17	28	17
157	35	21	32	4
157	65	14	14	17
157	84	18	5	14
159	87	17	-31	12
158	60	15	-55	1
158	44	19	-67	-2
157	18	25	-66	-8
158	-9	24	-70	-14
158	-10	18	23	-9
158	-5	19	82	-24
158	-13	22	33	-17
157	-15	19	57	-6
158	-15	24	-14	10
158	-7	22	-66	21
158	-3	14	-19	16
158	-11	11	-5	5
157	4	19	-3	-14
157	15	25	-9	-22
158	23	25	50	-27
157	12	28	74	-26
158	-8	23	19	-13
158	-5	18	-88	7
157	-9	14	-68	10
158	-9	13	43	4
158	-3	15	52	-2
158	-1	14	-3	2
158	0	20	-35	8
157	-2	21	-30	18
158	-10	17	-48	23
157	-7	18	-26	24
158	1	15	-7	28
157	3	9	-38	19
158	-3	1	-12	6
158	2	6	63	-13
158	12	11	92	-9
158	14	22	111	6
157	13	27	70	17
158	9	22	-30	21
157	9	29	-10	9
157	13	22	-1	16
158	8	23	-56	14
157	11	22	-36	0
157	9	17	-49	-7
157	5	25	-49	-24
158	3	16	29	-25
157	0	14	40	-16
157	-1	17	111	-7
157	1	21	136	7
157	0	23	33	14
157	-11	22	67	20
158	-13	18	110	11
158	-17	12	53	-8
158	-22	9	-29	-18
157	-3	18	28	-28
158	7	22	130	-27
157	7	17	-56	-24
158	24	25	-151	-21
158	40	23	-88	-15
157	46	17	-121	-9
157	42	13	-52	8
157	31	19	24	19
158	29	23	195	7
157	20	16	205	-5
157	11	17	-39	-1
158	18	25	-137	-14
158	12	17	-181	-27
157	-5	6	-60	0
158	-6	19	-22	23
157	-4	19	16	23
158	-4	21	43	29
158	-1	18	-52	27
158	-3	18	-5	24
157	-2	17	-52	12
158	-3	15	28	6
157	-1	18	93	-1
157	-2	17	15	-6
158	-10	22	28	1
157	-16	12	21	4
159	-19	10	-9	9
157	-9	14	-32	-10
157	-3	9	10	-13
157	-3	11	28	0
157	5	22	-5	10
157	16	21	-18	18
157	8	24	31	16
157	11	21	102	13
158	17	19	72	0
157	9	25	19	-4
158	6	22	13	9
158	29	30	-61	19
158	34	26	-82	15
157	12	19	52	7
158	1	19	155	11
158	-37	22	172	0
157	-92	15	111	-19
157	-52	13	-33	-17
157	0	18	-103	-11
158	15	24	-77	-9
158	46	27	-18	-4
158	51	22	-22	6
158	64	24	-44	9
157	60	19	-10	9
157	37	19	-9	7
158	20	17	19	-4
157	3	15	-1	-7
158	3	10	-33	0
158	11	14	-11	0
158	13	17	-43	4
158	11	14	-4	9
157	20	22	4	12
157	12	19	-9	4
157	4	18	102	-12
158	-5	16	199	-1
158	-9	14	148	-6
158	-7	11	82	-21
157	-14	15	38	-25
157	-11	18	-87	-23
157	-13	18	-54	-15
158	-4	19	-63	-5
157	1	12	-32	11
158	3	14	46	2
158	-6	16	4	-13
157	-18	18	64	-18
158	-6	24	5	-5
157	-1	22	-123	19
157	-13	19	-159	18
158	-10	25	-7	8
157	4	19	126	18
158	7	9	7	14
158	15	20	14	14
158	23	21	51	22
158	16	12	-66	20
158	10	6	-54	27
158	1	10	-37	16
157	-6	21	-28	14
158	-13	22	32	8
158	-10	17	64	-10
158	-5	23	119	-20
158	-7	22	72	-14
157	1	20	-31	-29
158	12	19	-116	-53
157	16	19	-74	-53
158	34	23	-13	-48
158	38	23	8	-14
157	18	20	49	12
158	22	17	17	14
157	20	19	40	23
158	8	18	-41	27
158	-27	20	-45	28
157	-102	17	112	27
157	-93	19	104	23
158	-23	17	36	24
157	2	9	22	21
158	41	15	38	14
158	92	20	21	7
157	114	16	8	-4
158	118	21	-6	0
157	110	31	-55	10
158	75	28	-77	19
157	25	24	-42	33
158	-19	26	21	32
157	-44	23	19	21
157	-20	15	-21	13
157	-15	9	-49	10
158	-23	14	-60	9
158	-15	17	41	7
157	-20	18	128	-6
157	-17	14	188	-32
157	-26	9	194	-49
158	-27	6	83	-40
158	-24	14	20	-41
157	-19	24	-39	-40
157	-8	22	-43	-2
158	-2	14	-6	-1
157	3	6	-59	-15
158	7	19	-181	-2
157	12	27	-111	3
158	12	21	-7	1
158	11	23	63	2
158	6	15	172	10
157	5	17	61	19
157	4	16	-5	26
158	5	15	-26	27
158	11	14	-78	15
158	6	15	-79	4
157	3	19	-34	-11
157	3	13	1	-21
158	-1	17	34	-10
157	-1	17	5	-6
158	4	19	-8	-19
158	5	19	-1	-24
158	-5	18	-17	-1
158	-5	18	32	-1
158	-5	20	41	-5
157	-1	22	102	7
158	4	19	69	14
157	15	21	-26	20
158	15	24	41	17
157	7	19	71	23
157	1	13	-42	22
157	10	17	-118	9
157	17	27	-101	0
157	1	16	-44	-2
158	-8	6	28	7
158	-12	11	-6	13
158	-1	14	-34	6
157	10	17	43	2
157	7	18	-21	-6
157	22	24	-174	-5
158	33	22	-41	-5
158	26	15	52	-15
158	27	10	47	-14
158	28	9	99	-6
158	26	17	146	5
157	17	24	200	16
157	5	24	26	26
157	-4	18	-4	32
158	-2	15	30	41
157	0	21	-86	52
157	-2	26	-24	47
157	-4	17	-4	21
158	-3	22	-22	-9
157	-2	22	68	-17
157	-1	17	129	-28
157	2	23	100	-55
158	4	19	73	-71
158	8	17	118	-96
157	15	16	95	-92
158	9	15	33	-30
157	1	15	-64	7
157	5	16	-145	8
158	-38	13	-150	6
157	-85	18	-136	18
158	-45	28	-116	16
158	1	21	-27	15
157	-8	23	139	32
158	-2	23	48	35
157	37	22	2	24
158	67	22	54	7
157	47	19	28	-7
158	32	17	52	-10
157	6	25	-75	2
158	-18	21	13	16
157	-3	8	101	23
157	0	15	4	20
158	20	15	24	17
159	24	19	-49	5
158	9	19	-61	-1
158	21	26	-45	10
157	35	26	0	12
157	28	26	40	23
157	19	27	-25	27
158	8	21	-18	25
157	0	13	-36	7
158	1	15	5	-7
158	19	18	86	2
157	19	16	108	7
158	5	18	71	7
158	1	15	64	6
157	-3	17	88	-4
158	5	17	8	-9
158	5	16	-189	7
158	1	14	-282	6
159	0	9	-123	-1
158	2	10	-19	5
157	7	9	3	-8
158	2	13	-23	2
157	-5	17	-1	18
158	-8	17	48	6
158	-12	16	81	-19
158	-8	15	130	-47
158	-16	9	9	-51
157	-26	19	-67	-35
157	-21	19	-32	-25
158	-20	12	-1	-16
157	-9	21	15	-9
158	6	18	-13	-6
158	15	14	62	-8
157	24	18	179	4
157	15	25	228	16
158	4	30	169	22
157	11	25	40	33
157	13	18	10	19
157	12	17	-12	13
157	13	14	-59	4
158	14	16	32	5
157	22	20	196	20
158	21	20	65	32
158	21	22	-74	35
157	12	20	-78	23
158	5	13	-146	19
158	-5	11	-74	7
158	-9	19	-65	-3
158	2	27	-15	-20
157	9	18	-1	-33
158	18	23	-95	-26
158	8	24	8	-27
158	-1	11	32	-23
158	0	19	-99	-8
157	-3	20	-20	-13
158	-4	19	61	-10
158	1	19	-7	-10
158	-1	19	16	-7
158	-4	25	43	13
157	3	23	38	16
157	4	21	34	18
158	-1	15	78	12
157	1	13	-16	3
158	5	19	-40	-10
159	10	24	45	-19
158	-3	27	38	-17
157	-53	16	47	-2
159	-65	14	1	14
158	-42	18	32	17
158	-47	12	22	20
157	6	13	-3	25
158	55	14	-20	23
157	75	15	-17	12
157	98	10	97	-9
158	90	6	56	-22
158	89	19	-51	-11
157	63	31	-91	-5
158	24	28	-166	10
157	8	25	-159	13
157	-11	28	-74	16
157	-35	21	12	35
158	-38	8	146	46
157	-24	10	66	45
157	-13	19	50	32
157	-16	15	111	9
158	-32	15	10	-11
158	-29	15	31	-11
158	-24	11	2	-13
158	-12	18	-6	-25
158	1	14	51	-34
158	27	14	33	-33
157	53	22	65	-33
157	66	23	31	-48
157	56	23	-17	-31
157	38	20	-48	-1
157	26	29	14	9
157	7	27	196	23
157	-2	18	27	19
157	-13	10	-179	15
158	-13	14	-66	6
157	-11	19	44	-12
158	-14	14	94	-15
158	-13	18	-42	-12
158	-15	19	38	-18
158	-11	20	95	-9
158	-8	19	-72	24
158	-5	18	-25	23
157	3	21	-92	6
158	2	18	-27	-4
157	-2	22	43	-2
157	3	24	-18	-1
157	0	17	23	2
157	-3	14	23	21
158	-1	14	68	13
158	-3	16	47	9
158	2	15	-60	7
158	4	17	-54	2
158	8	17	45	3
157	8	21	15	17
158	8	22	-3	18
158	4	19	0	8
157	2	13	30	-6
158	1	10	43	-8
157	3	22	-11	12
158	7	25	45	11
157	1	17	20	13
157	0	25	-18	20
158	-10	17	13	13
157	-57	12	31	5
157	-77	16	-12	-5
157	-15	27	-72	-8
158	46	21	26	-18
157	122	13	65	-8
157	162	24	-13	5
158	139	18	32	2
158	125	14	99	7
157	57	9	23	-2
158	-23	12	-61	-13
158	-142	18	-58	-5
158	-172	17	49	8
157	-57	15	93	10
157	-29	20	-12	-1
158	-33	29	-31	-18
158	-42	22	24	-4
158	-54	14	4	0
157	-12	16	-90	-4
158	8	15	-114	8
157	19	10	-30	8
158	39	14	2	7
158	48	17	-35	4
158	57	19	-27	4
157	52	23	-5	3
157	53	27	40	2
157	38	28	49	1
158	12	17	109	-5
158	-6	9	151	-2
157	-4	20	-9	-1
158	-6	21	-69	-1
157	-11	14	9	-4
158	-1	23	8	-3
157	4	24	12	10
157	9	17	82	22
158	14	19	17	31
157	19	24	-77	19
157	25	18	-10	-17
157	20	9	-102	-26
158	12	19	-45	-23
158	7	22	131	-38
158	-2	16	-3	-22
158	-13	20	19	-9
158	-19	14	92	-14
157	-12	16	96	-16
158	-9	15	51	-13
158	-5	17	-12	6
158	3	22	-45	9
158	3	17	-59	8
157	8	19	-12	19
157	15	21	-45	22
158	9	21	-4	20
157	9	22	-41	15
158	7	19	-55	6
157	5	15	5	8
157	5	13	88	16
157	12	14	179	18
158	19	19	67	22
158	16	21	20	19
158	8	23	26	10
158	5	24	5	-18
157	10	12	34	-32
158	19	17	-33	-26
158	19	20	-71	-18
158	12	14	50	-2
158	13	17	112	-2
157	5	11	24	-1
157	-15	9	-27	2
157	-39	18	-62	11
157	-44	28	-23	9
157	-21	24	44	10
157	-11	25	0	17
157	-10	18	8	9
157	11	16	68	8
157	30	27	38	15
158	30	20	42	9
158	27	14	47	-7
157	36	13	-142	-3
158	30	15	-282	16
157	23	17	-155	11
159	-2	12	-1	0
158	-50	11	-57	8
158	-89	13	-47	-9
158	-46	17	4	-21
158	-1	12	17	-23
157	7	24	122	-8
157	50	24	141	12
158	73	15	90	13
157	88	26	44	13
158	71	21	37	-1
158	38	17	39	1
158	27	17	-5	3
157	10	23	-4	2
158	1	19	49	-2
157	6	11	42	-6
158	9	15	-31	9
157	-4	17	-31	11
158	-4	14	-97	10
158	-12	17	-165	9
159	-23	19	-121	-3
158	-32	18	23	-2
158	-43	19	183	12
157	-28	22	70	17
159	-12	27	-16	19
157	-18	19	148	14
158	-27	11	226	10
158	-21	7	174	13
158	-18	20	58	12
158	-31	26	-42	-7
158	-45	16	7	-29
157	-11	20	-31	-37
158	15	18	-66	-36
157	29	21	-12	-33
158	53	21	-54	-26
158	57	17	-75	-14
157	65	19	-64	-8
157	58	17	-50	-6
158	44	15	-7	-5
158	27	15	54	-4
158	1	19	104	3
158	-7	17	92	9
158	0	20	23	13
157	-2	25	18	16
157	-21	26	0	31
158	-28	23	-31	35
157	-25	18	-24	31
158	-14	17	-62	23
158	-4	15	-67	14
158	15	15	-62	21
158	34	18	-46	21
157	44	18	-5	12
158	32	18	58	-8
157	14	17	91	-23
157	-1	23	36	-26
157	-8	24	-41	-23
157	-6	15	-36	-20
158	-8	13	-27	-25
157	-5	17	23	-10
157	1	26	30	-3
157	5	21	1	-16
158	9	19	71	-15
157	16	22	59	7
157	33	20	63	15
157	74	10	37	0
158	89	11	-41	0
157	53	19	-44	-10
158	31	18	-48	-14
158	-7	15	-26	-4
158	-45	16	-8	14
158	-95	18	6	15
158	-131	19	-1	10
157	-43	28	57	6
158	-5	22	130	4
158	-19	15	102	19
157	-5	14	7	21
158	-15	16	-72	9
158	-2	26	-97	5
157	6	17	-95	-8
158	10	15	97	-13
157	14	15	78	4
157	15	19	-89	10
157	21	21	-4	22
157	17	19	-23	18
158	18	19	8	8
158	16	20	94	3
158	19	24	131	-5
157	20	22	86	-10
158	19	17	-46	-11
157	17	13	11	-9
157	16	15	14	-8
157	11	14	-3	-12
158	10	11	43	-17
157	11	8	73	-8
158	4	13	11	6
158	7	19	-58	26
157	0	18	19	29
158	-9	18	68	20
158	-35	20	67	26
157	-70	21	-25	16
157	-64	19	-42	-10
158	-20	15	10	-18
158	-2	12	-47	-2
158	36	17	-143	5
158	90	19	-80	-5
158	119	17	-34	-1
158	119	26	-114	-1
157	85	29	-37	-8
158	63	33	-57	4
158	22	30	23	13
157	-8	17	150	26
157	-13	10	99	25
158	-12	13	-14	13
157	-1	19	-99	11
158	0	18	19	2
158	-8	17	14	-12
157	-16	13	43	-14
158	-13	19	95	-15
158	-16	19	20	-7
158	-24	21	34	-7
158	-29	23	23	-9
157	-41	16	21	-2
158	-40	17	16	3
158	-29	15	30	-9
158	-28	21	46	-8
157	-40	15	-62	2
158	-40	17	-96	7
157	11	25	-32	16
157	64	22	-8	11
157	91	20	13	9
157	86	13	49	7
157	65	7	83	3
157	43	14	103	-8
158	6	21	87	-15
157	-20	18	48	-11
157	-60	17	43	-11
158	-74	23	-12	-8
158	-42	21	-59	-6
158	-13	17	-36	-11
157	-1	15	-52	-10
158	19	15	-70	-11
158	34	21	-86	-5
158	17	18	-41	-3
157	11	15	65	-6
157	9	15	136	-2
157	9	19	70	9
157	6	22	21	15
157	11	22	60	14
157	19	19	30	22
158	6	23	-22	18
158	0	24	-75	18
158	1	19	-81	8
158	-6	15	-18	-2
158	-5	13	-6	2
158	1	14	-86	-6
158	-1	11	-67	-2
157	-1	14	64	-7
158	4	20	29	-4
158	6	17	19	-4
158	5	14	186	-6
157	3	15	222	7
157	4	15	116	6
158	3	17	-22	10
157	2	23	-21	13
157	3	25	-39	10
157	5	22	-47	10
157	7	21	18	15
158	13	17	50	15
159	14	19	35	5
157	18	19	-30	7
158	30	18	-15	11
158	28	21	-70	-6
158	8	16	-31	-9
158	-33	18	37	-2
157	-79	14	-47	-6
158	-45	9	-25	-10
158	-2	17	21	-4
158	17	24	22	6
157	61	22	46	4
158	85	19	25	2
158	131	22	-4	-4
158	140	25	53	-16
157	85	17	105	-31
157	46	15	-35	-32
157	3	24	-109	-15
158	-51	12	-26	-14
158	-117	8	-74	-14
157	-150	25	-77	-12
158	-53	26	39	-7
158	-6	27	4	11
158	-28	26	-65	19
157	-18	20	-120	23
157	-39	19	-135	18
158	-19	13	-54	23
158	-3	17	-21	19
158	-1	17	32	10
159	8	6	110	5
158	8	6	172	2
157	40	18	147	2
157	25	25	57	-1
158	28	27	77	8
158	43	26	33	3
158	26	25	-14	10
157	23	24	-5	11
157	-1	15	-9	5
157	-26	12	24	1
157	-10	19	23	-9
157	5	23	21	0
158	-1	17	23	8
158	23	15	10	4
157	43	15	-19	-1
157	61	16	52	-8
157	51	12	56	-5
158	29	16	-10	6
159	29	18	-12	7
157	11	20	-68	13
158	-3	18	-5	19
157	-3	10	-21	17
158	-8	14	-42	-5
157	-11	18	-33	-8
158	-6	22	-101	0
158	-8	25	-15	0
157	-7	22	53	6
157	-7	17	164	1
158	-14	15	85	-4
158	-17	13	3	-26
158	-10	12	55	-23
158	-9	8	-7	-13
157	-12	13	37	-10
158	-6	17	9	4
158	-8	12	17	5
157	-9	10	50	2
157	5	15	52	15
158	30	21	-7	26
158	38	29	-59	19
157	11	29	10	5
158	11	26	-32	8
158	9	19	-39	4
158	4	15	32	-12
158	15	19	6	-21
158	32	13	-62	-21
158	45	13	14	-18
158	31	17	38	-13
157	12	20	1	-2
157	-4	19	6	7
158	-16	16	-5	12
158	-31	13	25	18
157	-34	13	38	11
157	-9	17	38	-1
157	3	24	-70	7
158	-2	24	-105	-4
158	-6	17	-48	-4
157	6	24	-87	19
158	13	24	-11	10
157	5	19	-29	16
158	-12	19	-48	22
158	-63	11	56	8
158	-64	13	65	11
157	-3	17	59	3
159	10	22	46	3
157	37	20	80	2
157	63	19	64	8
158	67	19	41	6
157	71	18	26	3
158	46	21	0	6
157	30	18	-17	-9
158	4	14	-6	-21
157	-12	14	39	-23
157	-1	21	15	-25
158	-1	20	17	-23
157	-4	16	4	-22
159	-4	22	-12	-17
157	-5	22	-6	-6
158	-5	19	-21	7
157	-9	19	6	11
158	-9	18	4	12
158	-7	21	5	23
157	-7	23	-11	18
158	-4	22	13	16
157	-1	15	164	34
157	3	10	128	24
158	15	22	-47	-1
158	7	30	-20	2
158	-3	18	35	0
158	-1	22	-29	-1
158	10	24	-29	-3
158	16	25	-21	-7
158	18	27	-13	-4
157	18	18	39	-14
158	10	14	15	-18
158	14	14	-37	-5
158	13	14	36	-3
158	8	15	62	-7
158	-4	19	-62	-7
157	-8	18	-56	-14
158	-5	16	-68	-14
157	1	19	-73	-10
158	4	24	109	3
157	-5	24	172	16
157	0	22	6	18
157	-2	9	-28	15
158	-19	5	41	-2
158	-22	10	47	9
158	-15	13	23	14
158	-11	17	-103	4
158	-5	13	-113	14
158	16	17	-59	11
157	32	18	-19	8
157	41	23	15	4
157	49	30	40	2
158	41	21	98	4
157	25	19	22	2
158	17	28	-52	8
157	-1	23	36	7
157	-18	15	104	9
158	-17	22	-22	23
158	-4	20	-83	30
157	8	12	-45	21
158	5	14	-58	14
157	15	19	-38	-5
158	21	16	-4	-24
158	18	15	2	-33
158	20	19	82	-32
158	12	17	79	-11
157	5	15	-36	7
158	4	16	-37	15
157	0	15	-41	13
158	-1	10	-70	-10
157	-3	18	-26	-6
158	-4	13	15	12
157	-8	10	36	7
158	-7	13	12	-12
158	-3	12	8	-30
158	-2	14	135	-29
158	-9	17	162	-18
158	-6	25	150	-8
157	-2	20	226	3
158	0	19	142	5
158	1	16	52	10
158	-1	13	-18	18
158	1	18	-72	9
157	8	25	-21	10
158	9	23	6	18
157	10	18	-13	8
158	12	21	-82	11
159	11	16	-77	0
158	4	16	-90	-8
158	5	17	-55	6
158	5	19	-12	11
158	7	17	-55	17
158	7	18	-13	11
158	1	22	1	7
157	-4	17	-1	4
157	-4	15	12	-16
158	0	18	-8	-29
158	2	22	6	-2
158	10	20	21	7
158	18	20	-20	-3
157	28	24	-31	6
157	25	24	33	1
158	17	23	62	2
157	12	18	40	3
158	11	19	24	-4
158	9	15	3	-2
158	2	14	-3	-8
157	3	17	10	-26
158	3	24	-16	-28
157	7	21	-21	-27
157	9	18	-11	-17
157	6	16	-37	-3
158	3	18	-4	12
158	3	17	99	24
157	7	22	178	28
157	6	24	104	25
157	-1	18	18	21
157	-1	15	37	13
158	-1	11	-10	0
158	-1	12	2	-7
158	1	18	-24	5
157	6	15	-97	16
157	5	18	-49	16
157	5	18	-29	20
158	9	15	-54	9
158	4	24	-111	2
157	4	26	-70	4
157	4	18	78	-10
157	-2	17	85	-8
157	-1	17	35	-12
157	-4	16	25	-16
158	-3	19	-102	16
158	1	19	-120	17
158	8	9	64	-8
158	14	11	79	0
157	16	17	1	6
157	10	19	65	13
158	8	23	109	21
158	1	19	33	16
157	2	19	-100	6
157	5	22	-45	-13
157	3	15	33	-8
158	2	20	6	-2
157	-8	19	2	-15
157	-14	19	-27	-11
158	-1	20	46	-8
157	9	17	61	-8
158	4	16	41	-14
157	8	12	35	-14
158	12	11	28	-24
157	20	19	-28	-21
157	24	21	-82	10
158	16	20	46	11
158	15	21	45	23
158	14	22	15	29
158	13	21	8	23
158	6	19	-2	25
157	3	20	36	17
158	1	17	68	11
157	-2	15	97	3
158	0	17	42	-2
158	0	17	11	-15
158	3	17	-73	-22
157	1	19	-91	-25
157	3	22	-21	-23
158	1	19	-64	-12
157	3	21	48	-12
158	1	13	174	-25
157	1	11	111	-31
157	3	14	-35	-12
157	3	14	-37	7
158	3	24	85	10
158	5	22	21	11
158	5	16	-26	18
157	6	23	6	20
157	10	26	-38	16
158	7	21	-143	13
158	2	15	-184	11
158	1	20	-34	20
157	3	20	159	17
157	0	13	164	8
158	1	14	84	11
157	3	15	73	14
157	1	20	-10	13
158	-7	21	5	12
157	-12	12	6	7
159	-4	20	-112	-2
157	8	22	-119	-1
158	12	12	-60	6
158	13	18	39	4
158	10	19	111	8
157	12	19	119	2
158	19	24	7	6
158	18	24	-69	-4
158	8	13	-87	-21
157	2	14	-79	-23
157	5	23	8	-25
157	4	22	-37	-6
158	3	23	-24	-10
158	1	15	19	3
158	8	20	5	10
158	16	21	98	7
157	10	22	116	7
157	3	22	-15	2
158	2	19	-145	16
157	1	16	-24	4
158	1	11	56	7
157	3	19	-10	11
157	-4	18	43	13
157	-8	19	22	10
157	-7	12	68	-1
157	-6	6	56	-4
158	-2	19	-73	-13
157	-2	22	-73	-6
157	-3	17	-50	4
158	4	16	9	2
157	16	20	23	1
158	25	25	70	0
158	32	25	157	0
157	40	25	78	-4
158	34	26	-29	-2
157	25	23	-45	4
158	11	18	-22	-2
157	1	6	0	-10
158	-2	5	42	-15
158	1	15	5	-6
158	11	19	20	9
157	4	16	41	3
158	0	25	-38	4
157	4	21	-9	-2
158	3	17	-12	6
157	1	11	22	19
157	-1	1	29	-2
158	-2	11	30	-20
158	-4	17	67	-15
157	-1	19	47	-1
158	-1	16	71	-4
157	-3	12	12	2
158	2	19	-72	10
157	-5	26	-101	7
158	-10	24	-41	7
158	-6	22	-32	14
157	-1	23	21	16
158	5	21	143	15
157	8	24	91	18
158	5	27	-66	11
158	-2	19	-66	-1
158	4	14	-27	-4
158	10	13	-96	-4
157	8	14	25	0
157	16	25	197	-5
157	19	18	138	-15
158	10	15	-17	-13
157	7	24	1	-13
159	3	15	5	-13
157	5	18	-66	-11
157	16	18	-47	7
158	7	14	-38	22
157	-1	15	-13	20
158	0	18	-49	16
157	-4	22	-28	19
158	-3	15	22	17
158	1	16	2	11
158	11	18	22	0
158	14	27	20	-13
158	8	21	58	-15
157	3	15	73	-19
158	5	20	71	-20
158	7	17	15	-22
158	4	21	-42	-9
158	12	20	-1	6
158	12	20	13	10
158	4	17	14	22
157	0	17	-5	19
158	-4	18	-7	15
158	-8	18	-26	3
158	-4	15	-55	-9
158	-3	10	-20	-18
157	5	17	-77	-10
158	13	22	-104	-5
158	13	14	7	-2
158	15	18	37	4
158	18	19	63	-1
158	16	21	53	2
158	14	23	36	4
158	11	24	115	9
158	-4	18	84	11
158	-19	15	-11	8
158	-24	17	-27	5
159	-20	15	20	10
158	-4	18	-3	21
157	10	19	-38	13
158	15	17	-7	-4
157	19	15	16	4
157	32	17	37	14
158	39	23	27	3
158	30	22	-20	-1
158	22	19	-48	-2
158	25	17	-28	3
158	33	17	-21	13
158	19	15	-81	-6
158	5	14	-85	-19
157	-6	14	45	-16
158	-16	9	183	-19
158	-15	14	173	-25
157	-26	21	90	-29
158	-27	17	64	-4
157	-12	16	5	13
158	-5	19	-6	2
158	-11	16	-24	0
158	-5	21	-31	-8
158	-2	24	-3	-7
158	-1	20	-38	3
157	1	21	-9	13
158	4	23	5	18
157	20	27	-10	17
158	27	26	-56	18
158	14	23	-55	16
158	-2	24	18	23
157	-4	20	25	24
157	-2	14	-4	15
158	-2	16	-26	16
158	1	15	53	-2
157	3	12	33	-6
158	11	25	-4	2
158	15	25	21	10
158	-19	19	-33	17
158	-56	14	36	8
157	-18	10	29	4
157	16	15	-23	-1
158	20	14	-22	-2
157	43	13	-24	-4
158	56	14	-46	-8
157	85	21	-39	-14
158	77	17	117	-17
158	45	19	93	-9
158	27	27	18	-8
157	-10	25	51	-5
157	-24	22	52	-2
158	-18	17	56	6
158	-6	13	66	14
157	1	14	23	13
158	-1	20	-80	6
158	-2	23	-54	-9
158	1	18	-12	-15
157	-5	10	-35	-30
158	-11	13	-40	-33
158	-8	15	-27	-18
158	-8	13	-4	1
158	-5	16	25	15
157	-10	12	23	8
159	-23	13	97	3
157	-21	17	145	-5
157	-17	15	51	-13
157	-25	13	-49	-8
157	-17	19	-113	-6
157	-6	17	6	7
158	9	19	-11	19
158	38	28	-42	12
157	40	25	7	19
157	32	26	-62	4
158	42	23	33	-7
158	48	24	55	-4
158	32	18	93	-2
159	12	16	86	-4
157	5	29	-33	0
158	0	27	12	4
158	-5	18	-2	-2
158	-4	19	-71	-4
158	-2	15	-48	7
159	-3	18	-36	16
158	0	22	-35	27
158	1	20	-32	34
157	0	17	-31	23
158	1	13	5	7
158	1	14	1	-3
158	0	12	0	-4
158	-2	16	21	-12
157	3	14	19	-18
158	-4	14	9	-18
157	-10	16	33	-12
158	-9	14	131	0
157	-6	13	152	4
157	-5	14	51	10
158	6	19	21	12
158	12	22	12	9
158	13	19	-1	10
158	16	19	40	9
157	11	23	-4	13
158	7	19	-62	16
157	3	11	-67	16
157	-1	14	-27	13
157	-4	21	-68	-1
158	-12	21	-130	0
158	-11	15	-10	10
157	-1	25	58	6
158	14	19	-27	1
158	20	14	17	-4
157	23	16	93	-7
158	29	23	92	-12
158	21	23	173	-20
158	9	11	99	-14
158	7	15	-94	6
157	15	24	-209	17
159	10	17	-114	7
158	3	9	-2	-8
158	5	15	119	-14
157	5	15	112	-13
157	3	12	-48	-1
157	3	14	43	-7
158	7	23	71	-25
157	10	19	162	-21
159	10	17	196	-4
157	5	23	55	4
157	1	22	-15	13
158	0	24	-41	3
158	-6	23	-39	2
158	-3	19	-67	6
157	1	18	-61	8
158	1	22	-19	11
158	2	21	37	11
157	1	17	27	18
157	1	15	52	11
157	2	19	15	8
158	4	21	-85	6
157	5	18	-66	15
158	7	21	-60	13
158	3	12	-20	4
158	2	17	53	-2
158	5	27	-35	-16
157	5	21	-101	-22
157	5	19	-80	-22
158	3	18	-95	-21
157	1	11	-39	-17
157	4	14	-52	-7
158	3	22	-36	1
158	-12	17	15	3
158	-55	15	-7	7
158	-39	12	-8	5
159	15	11	83	10
158	35	15	185	12
158	60	17	155	9
157	74	21	44	19
157	66	15	-16	24
158	56	11	16	7
158	29	17	20	10
157	-13	13	49	17
158	-31	14	24	16
158	-23	26	40	19
158	-34	28	30	12
157	-8	33	-24	8
158	8	27	22	1
158	1	21	-32	-7
158	3	21	-44	-12
157	-3	18	-17	-19
158	4	18	32	-25
158	2	15	58	-4
158	6	17	49	7
159	1	16	50	-12
158	2	16	23	-16
158	0	9	20	-1
158	-3	7	-27	3
157	6	8	-38	4
159	-4	9	-19	11
158	-14	8	8	15
158	-22	11	40	15
157	-17	15	60	11
157	-14	15	22	3
157	-1	14	-43	10
158	16	9	-24	6
157	22	10	12	-10
158	31	16	-38	-1
158	38	21	-64	-7
158	37	19	-19	-21
157	28	15	-56	-25
157	22	19	102	-25
157	22	24	145	-19
158	16	26	-47	0
158	0	18	-11	12
158	0	28	-85	-2
157	11	39	-94	0
157	12	28	-8	17
158	2	26	2	20
157	-1	24	102	15
157	-1	19	30	20
157	-5	24	41	30
157	-5	23	145	24
157	-11	25	96	10
157	-12	23	-17	3
158	-9	21	-49	6
157	-7	17	36	-2
157	-5	16	29	-9
158	-2	21	-15	-12
158	3	25	-29	-22
158	2	26	-6	-19
158	2	21	13	-25
158	5	14	16	-17
158	7	15	6	-5
157	8	22	-52	-5
157	8	28	-46	-1
157	8	31	-28	1
157	10	28	-3	0
157	5	21	53	-6
158	5	27	13	-5
158	8	24	-5	-5
157	7	7	60	-1
157	1	5	204	3
158	-17	11	217	-3
158	-12	13	33	-5
157	3	12	-48	3
157	5	8	-56	7
157	13	12	-36	1
158	14	16	-28	2
157	20	13	-54	0
158	22	21	-124	14
158	13	17	-175	15
158	10	18	-113	14
159	15	17	-32	14
157	16	15	43	14
158	19	15	6	24
157	5	16	-32	19
157	9	18	-35	20
158	14	21	-57	25
157	0	21	-29	23
157	-3	15	12	22
158	3	17	82	11
158	10	19	177	-3
157	-4	19	179	-10
158	-35	20	88	-15
158	-42	15	38	-3
157	-34	9	5	16
158	-26	4	3	9
157	-6	9	-10	4
158	15	16	-38	2
157	38	18	-13	7
158	32	22	19	9
158	-11	22	30	-1
157	-33	24	-40	-9
157	12	24	-26	-21
159	43	26	47	-23
158	47	29	4	-15
159	67	30	-30	-11
157	74	25	-35	-29
157	80	19	-123	-38
158	35	17	-110	-42
158	10	24	1	-36
157	24	22	121	-26
157	-8	21	193	-34
158	-34	14	43	-3
157	-17	7	-82	24
159	-9	14	118	25
158	-21	15	275	30
158	-14	13	102	30
157	-25	14	0	23
158	-30	17	-130	28
157	-19	17	-186	39
158	-11	21	-144	36
158	0	22	-91	34
157	3	12	48	25
157	1	13	89	-1
158	4	19	174	-20
158	11	20	172	-32
158	-2	12	72	-50
157	-19	11	74	-33
157	-8	14	41	-10
158	5	15	-67	4
158	16	15	-77	18
158	18	11	-89	-6
157	26	18	-81	8
158	37	24	-23	36
157	28	23	-14	33
158	25	24	24	25
157	22	23	4	5
157	11	22	-40	-12
158	5	27	-81	-38
158	-4	22	-22	-41
158	-13	12	84	-25
157	-7	9	34	-12
157	5	13	-50	-2
158	9	13	5	-6
157	3	20	83	5
157	-1	27	0	21
158	-8	21	-25	15
157	-15	22	19	24
157	-3	21	-2	24
157	2	17	57	16
157	-3	7	104	17
158	-2	1	69	10
158	-3	12	-11	19
158	1	25	-120	31
158	15	28	-80	25
157	18	20	22	6
158	11	19	-39	-15
157	7	26	-75	-15
158	10	25	-7	-5
158	3	17	-9	-19
157	-3	15	-9	-22
157	-2	20	26	-1
158	-1	16	103	-5
158	1	17	107	0
158	8	23	15	4
158	11	29	-30	-2
158	7	27	-43	3
157	3	22	7	-6
158	3	15	15	-7
157	5	12	-28	-10
158	9	17	-49	-13
158	4	14	20	0
158	-1	15	103	11
158	2	15	37	14
157	4	18	-4	9
158	11	20	-18	9
158	20	19	-79	11
158	15	15	-45	5
157	14	12	112	5
158	14	13	249	1
158	13	14	177	1
158	5	22	5	11
157	4	29	-102	18
157	4	24	-50	25
157	-3	17	14	20
157	3	26	-26	12
157	5	22	25	17
157	5	15	4	14
157	3	17	5	3
158	0	17	22	4
157	1	14	23	-10
158	-3	9	-31	-25
157	5	14	-143	-33
158	9	17	-68	-55
157	4	14	-38	-43
157	-5	17	-27	-10
158	-57	23	66	-20
157	-83	24	222	-14
158	-37	13	208	-2
157	-17	11	-7	7
158	11	16	-54	14
157	50	21	-63	12
158	64	20	-23	31
157	78	11	-15	24
158	48	8	-27	14
158	30	14	-1	8
158	23	25	-38	-1
158	-2	26	-28	-3
157	-20	22	-39	-18
158	8	22	-87	-25
158	55	28	-40	-15
157	57	28	-7	-9
158	46	20	-27	-14
157	42	21	23	2
158	26	19	137	25
157	17	17	157	26
158	-12	16	31	17
157	-21	16	13	8
158	20	27	19	13
157	0	26	13	19
157	-20	19	2	28
158	-14	24	-83	26
158	-29	21	-46	10
158	-25	10	17	-9
157	-23	11	80	-26
157	-19	11	46	-33
157	-13	17	-71	-32
158	-12	17	-85	-28
158	-7	8	93	-22
157	-6	17	182	-2
157	-2	19	50	10
157	-1	10	31	0
158	0	16	-13	-2
158	-3	19	-19	2
158	-1	21	-9	14
158	0	23	-41	12
158	-5	17	-9	7
158	-4	18	-38	10
157	-1	19	-22	4
158	7	16	1	2
157	9	15	0	15
158	11	22	-59	19
157	10	24	-100	25
158	9	22	-55	25
157	14	19	35	17
158	14	17	53	16
157	9	22	9	4
157	5	14	95	7
158	-11	15	112	24
157	-18	19	69	19
158	-3	17	-5	5
157	11	23	-59	4
157	16	21	15	-6
158	11	17	22	-17
158	9	18	1	-23
157	24	22	5	-21
158	29	23	-29	-12
157	19	20	-35	-14
158	12	18	-39	-3
157	11	15	-51	1
157	8	14	-26	0
157	7	8	8	2
158	5	12	34	-1
158	7	14	62	-3
158	5	11	85	0
158	3	14	162	14
157	3	11	186	20
157	1	11	94	18
157	1	18	24	15
159	3	24	9	8
158	7	26	-62	2
159	5	24	-100	15
157	2	18	-122	20
158	1	15	-156	9
158	1	15	-28	-9
157	5	14	28	-42
157	3	19	45	-66
157	1	23	30	-42
158	5	17	-12	-14
159	5	22	41	-15
157	1	18	49	-13
158	1	18	-5	4
157	-1	22	-9	11
158	-6	22	13	-2
158	-14	27	17	4
157	-10	17	66	2
158	-6	7	0	3
157	7	17	-149	21
157	24	29	-141	18
158	18	17	-50	10
158	22	19	-80	23
158	21	21	-116	15
158	-32	16	-56	-6
158	-66	22	120	-7
158	-23	22	216	-17
158	-2	21	140	-15
158	18	19	190	-14
157	53	18	146	-9
157	65	17	90	13
158	81	15	49	13
158	75	17	-100	4
157	65	18	-133	-1
158	32	19	-49	8
159	5	26	-44	10
158	-3	24	-31	11
158	-15	13	103	29
157	-11	10	66	15
158	-9	15	93	-1
157	-4	18	21	10
158	-2	19	-65	10
158	-7	24	6	11
157	-9	19	-16	22
158	-9	15	39	34
157	-9	17	-2	35
157	-11	15	-34	22
158	-14	11	-30	22
158	-11	14	-8	18
158	-7	15	4	2
157	-4	17	-45	-13
157	3	19	-27	-33
157	-9	17	9	-64
157	-42	19	30	-78
158	-53	19	3	-72
157	-18	22	-6	-44
157	3	21	-8	-12
158	13	15	22	-2
158	28	14	82	7
158	41	15	70	22
158	43	21	-18	23
158	33	26	-55	22
157	34	25	-83	22
157	23	18	-112	13
158	11	14	-69	15
158	7	18	-18	15
157	11	22	124	17
158	3	19	144	21
157	-13	21	-3	15
157	-1	24	25	11
157	8	15	93	19
158	7	20	26	19
158	0	22	20	10
158	-4	15	36	15
158	-5	15	81	24
158	-1	17	54	23
158	0	13	-27	17
157	-6	18	-7	0
158	-37	25	-23	-16
159	-82	21	-66	-31
158	-57	9	-95	-31
157	-7	9	-34	-22
158	33	17	17	-30
157	67	15	57	-25
157	71	19	104	-6
157	74	17	34	-14
158	59	17	-32	-16
158	44	19	-83	-12
157	14	20	-60	-7
158	-6	25	-32	0
158	10	26	29	9
158	0	25	82	13
158	-5	22	33	-6
158	-8	21	5	-9
158	-15	24	-42	-1
157	-30	14	2	4
159	-41	11	-8	8
157	-25	15	-35	11
158	-9	15	-20	8
158	3	21	-43	13
158	-2	17	24	22
158	2	13	57	23
157	23	12	127	16
157	36	17	123	16
157	35	22	98	19
159	10	19	93	10
157	5	15	-64	7
157	19	17	-27	2
158	24	18	2	5
157	25	22	-23	4
157	17	22	-8	-5
157	20	22	-29	-4
158	24	21	63	-12
158	16	15	40	-12
158	10	15	0	12
158	4	15	-31	32
159	-2	17	-70	13
157	-11	21	-20	-11
157	-12	19	-21	-10
157	-12	23	-17	-7
158	-11	22	-14	-7
158	-10	11	-50	-1
157	-13	11	-34	1
158	-11	17	10	-2
158	-5	15	34	-8
158	1	17	89	-14
157	8	13	79	-10
158	8	14	19	-9
157	10	18	38	0
157	13	20	55	1
157	5	18	18	-13
158	-4	14	10	-14
158	-1	24	-4	-9
157	-7	25	-43	-3
158	-5	14	-130	0
158	5	18	-243	16
157	15	24	-207	12
158	15	21	-116	3
158	8	19	35	9
157	5	9	262	-1
158	4	13	253	4
158	6	31	91	2
158	7	27	43	4
158	10	20	-47	15
157	8	21	-55	2
158	5	19	-26	9
157	9	19	-36	2
158	9	18	4	-16
158	5	17	21	-16
158	3	17	50	-2
158	2	19	79	2
157	-1	17	84	-6
158	0	22	16	9
157	9	23	22	21
157	8	19	36	17
158	8	20	41	11
157	4	18	66	14
159	-1	17	-51	19
158	2	20	-63	17
158	4	17	20	27
158	20	13	27	32
157	31	19	27	14
158	17	15	75	2
157	18	8	118	-9
158	13	17	30	-32
157	-6	17	-87	-41
157	-9	15	-52	-38
157	-17	22	-30	-34
157	-13	19	-20	-15
157	2	21	14	-5
158	4	19	-2	-18
158	7	19	16	-11
158	-36	19	0	2
158	-105	12	-8	-1
157	-79	13	11	0
158	-17	17	-5	14
157	16	23	-90	23
158	61	14	-90	25
158	87	10	28	19
157	96	17	170	9
158	79	15	154	0
157	47	13	23	-7
158	34	17	-17	4
157	9	19	-74	19
158	-1	17	6	13
157	1	20	-26	9
157	14	20	-80	2
158	19	19	-2	4
158	20	19	9	1
157	22	17	25	1
157	-9	24	-104	19
158	-25	26	-110	7
158	-21	17	23	0
158	-19	17	51	2
158	-12	17	51	2
158	-10	13	38	3
157	-6	18	65	-7
158	2	22	86	-15
157	12	20	54	-17
158	13	19	21	-9
158	12	20	-8	-7
158	3	19	-13	0
158	-5	26	-12	4
158	1	22	5	0
157	1	20	32	3
158	7	26	37	5
157	2	22	22	4
157	-3	17	34	4
157	0	11	-6	2
158	5	17	-59	1
158	-10	23	8	2
158	-22	19	38	9
158	-20	17	13	13
158	-22	16	-5	6
158	-7	17	-8	6
158	7	20	20	13
158	16	23	31	2
157	26	22	8	-8
158	30	14	-41	-6
157	33	19	-85	8
158	29	22	-166	14
158	23	19	-152	7
158	10	15	-15	-16
157	-3	11	36	-46
157	-2	18	46	-39
157	3	15	55	-18
158	-1	17	60	-6
158	-3	17	-54	-3
159	-9	17	-99	0
157	-19	15	140	-1
157	-13	13	215	11
158	3	17	111	14
158	7	17	181	4
158	5	18	172	4
157	16	20	-8	8
158	16	15	-27	22
158	28	21	-40	18
158	33	23	-88	8
157	23	24	-105	6
158	14	19	-96	8
157	7	13	-25	6
158	16	13	-67	10
157	13	13	-48	4
157	3	15	85	-4
158	-1	14	13	-5
158	-13	17	-103	-14
157	-11	17	57	-17
157	-8	15	91	-14
158	-8	19	60	4
157	-3	21	142	9
157	5	19	72	9
157	7	15	24	12
158	4	21	21	6
157	8	23	23	2
158	6	23	22	-5
157	11	25	5	3
157	8	18	-4	2
157	5	21	-10	-3
157	1	17	-8	0
158	1	12	-80	5
158	4	25	-152	14
157	3	23	-32	18
157	-2	7	111	9
157	-2	5	128	7
158	6	7	78	12
157	-13	15	13	10
158	-66	21	-17	14
158	-94	12	-20	13
157	-52	12	30	15
158	-12	10	10	15
157	16	15	-88	-1
158	72	27	-60	-7
158	114	19	-53	-15
157	112	24	-103	-28
158	75	24	-15	-39
158	68	28	-24	-32
157	38	32	-65	-26
158	2	25	-15	-17
157	6	26	-24	-7
158	3	25	8	0
157	2	19	26	11
157	-5	19	45	20
158	-8	22	92	23
157	-13	17	77	19
158	-11	15	1	16
157	-6	17	-7	19
157	-11	14	78	7
158	-17	11	62	-10
158	-16	19	8	-14
158	-14	18	23	-14
158	-9	12	40	-12
157	1	16	18	-10
158	3	17	21	3
158	12	26	25	-1
157	18	23	-33	15
157	15	18	-86	25
158	-14	18	-70	22
157	-49	19	-26	28
157	-47	16	-61	29
158	-21	10	-47	28
158	-18	14	90	2
158	-6	13	128	-21
157	30	14	78	-17
158	47	13	196	-13
157	47	15	116	-13
157	47	19	-59	-13
157	35	22	19	-5
157	20	23	-38	-1
158	-4	21	1	-9
158	-6	21	18	-6
158	1	16	-4	-3
158	1	15	-18	-5
158	4	17	-49	-2
157	1	16	43	8
158	-3	17	-12	14
157	-4	17	-19	15
158	5	17	8	14
157	15	19	45	17
158	8	20	88	16
157	2	19	-17	7
158	1	24	-101	19
157	4	25	-120	25
158	6	19	-80	3
157	1	17	32	-5
157	-3	16	64	-18
158	-1	16	-48	-25
157	-7	19	35	-12
157	-13	23	57	-5
159	-12	20	-75	-2
157	-4	21	-62	4
157	3	24	-12	-2
158	10	21	29	7
157	17	17	21	21
158	27	13	67	18
158	28	15	93	18
157	13	16	84	1
157	16	23	104	-22
157	10	19	89	-40
158	-4	14	43	-45
158	0	18	-43	-24
158	6	24	-93	-15
158	10	27	-144	-23
157	10	25	-114	-12
158	13	21	-48	6
157	11	18	-67	23
157	5	24	-20	26
158	7	25	-23	13
158	7	22	-28	-2
157	10	22	16	-6
158	6	16	71	-1
157	5	12	115	-5
158	-1	6	161	-13
157	-5	3	137	-6
157	-2	8	126	8
158	2	17	118	11
158	-4	19	30	-8
158	-48	18	35	-3
158	-100	19	-61	19
158	-81	15	-55	18
157	-15	21	-94	25
157	14	16	-85	14
157	52	15	0	12
157	81	19	-54	10
157	95	19	38	4
158	95	18	83	13
158	71	15	46	13
158	59	14	-48	20
157	27	15	-10	17
158	2	26	21	4
158	1	28	-1	1
158	2	31	59	3
157	-12	22	110	4
157	-14	19	77	6
157	-12	28	-24	-4
157	-11	17	-75	-9
158	-6	7	-146	-7
157	2	4	-157	-6
157	5	12	-102	-13
158	-9	15	20	-16
158	-19	15	79	-2
157	-35	13	98	-1
157	-35	9	25	-3
158	-31	18	-68	2
158	-33	21	95	1
157	-8	17	112	2
158	18	26	58	10
158	31	26	15	12
158	26	23	-68	13
158	16	24	-64	16
157	14	21	-52	5
158	18	19	-17	-13
158	5	17	-11	-6
158	1	21	0	-1
158	-3	17	13	-11
158	-2	19	15	-8
157	-6	20	26	-7
157	-2	19	82	-2
157	13	21	108	7
158	-2	22	102	6
157	-1	17	45	-2
158	-3	14	-87	-5
158	-7	11	-104	13
157	1	11	-79	32
158	13	19	-124	41
157	13	21	-84	42
158	-19	21	32	28
158	-18	17	81	6
158	1	9	136	-25
157	12	14	178	-64
158	33	17	191	-53
158	45	15	78	-33
158	43	16	-25	-39
157	39	19	0	-32
157	33	19	-28	-17
158	20	22	-46	5
158	12	18	-23	4
158	-15	17	-1	8
158	-13	21	-11	21
157	17	21	-21	19
157	16	20	0	24
157	11	15	14	16
158	-2	17	-12	18
158	-20	11	-96	26
158	-23	3	-107	23
157	-19	4	-2	31
158	-10	15	23	27
158	-11	13	-13	6
157	-6	16	29	-5
158	8	26	61	-25
157	26	23	-13	-26
157	29	33	-73	-29
157	30	32	-95	-30
157	39	35	-129	-4
158	28	31	-74	6
157	1	22	7	11
157	-45	23	86	7
158	-56	17	119	11
157	-9	12	190	15
158	-2	9	228	6
157	17	15	-48	4
158	44	10	-26	7
157	48	9	193	14
158	59	16	141	13
158	37	18	68	15
158	21	17	21	22
158	3	16	9	28
157	-7	13	-2	5
158	-5	17	-12	-6
157	-3	21	-75	-18
157	-5	19	-34	-36
158	-6	21	-15	-30
157	-4	18	-5	-21
158	-5	15	43	-2
157	-5	19	16	0
158	-12	17	24	0
157	-17	11	-12	-7
158	-16	18	-53	1
158	-7	24	-91	5
157	-8	21	-49	0
158	-7	21	24	-2
158	-3	23	34	0
157	-2	21	18	6
158	2	22	-44	12
157	-3	21	-183	19
157	-7	22	-232	15
157	-3	24	-74	7
158	-4	14	21	-5
157	-2	19	24	0
158	-6	21	56	-13
158	1	19	74	-8
158	16	21	53	0
158	25	13	27	0
158	28	16	7	20
157	25	21	43	29
158	33	26	67	32
158	34	22	47	37
157	15	21	64	32
157	9	22	31	7
157	10	17	61	-8
158	4	16	112	-24
158	3	23	46	-29
158	8	26	-41	-16
158	14	23	-95	-32
158	14	20	-67	-48
158	1	12	12	-37
157	3	12	-3	-25
158	0	21	-23	-9
158	-3	23	3	9
159	0	10	-8	15
158	-4	13	-65	13
158	-2	19	-59	11
158	-2	19	32	17
158	4	21	104	15
158	14	11	131	26
158	30	15	54	21
158	21	19	74	10
158	8	11	50	4
158	1	10	-44	-9
157	-6	21	-43	-10
158	-7	21	-38	-2
157	-23	16	-12	8
158	-24	17	-22	-7
158	0	22	8	-12
158	12	23	23	4
157	14	14	22	9
157	14	16	7	9
157	9	17	-1	9
157	0	17	5	18
158	4	18	-8	12
158	3	18	25	4
158	4	22	6	14
157	13	19	5	7
157	13	20	25	6
157	14	23	49	3
158	10	17	59	-6
157	4	15	28	-24
157	-2	15	22	-41
157	-20	14	1	-34
157	-52	19	-15	-24
158	-70	15	-11	0
157	-43	15	-34	23
157	-7	23	-22	28
158	17	20	20	25
157	46	15	-33	21
158	63	14	-26	6
157	92	15	-13	-15
158	87	17	-92	-25
157	48	20	-114	-15
157	24	22	-70	4
157	-35	14	150	1
159	-89	17	301	8
157	-46	24	103	21
157	-20	21	85	21
158	13	21	109	-4
158	69	19	-45	-18
158	91	19	-124	-25
157	93	22	-214	-28
158	58	19	-53	-4
158	41	23	20	13
158	2	15	-63	10
157	-28	24	-83	14
159	-6	29	70	14
157	-9	22	161	-4
158	-14	27	25	-1
157	-21	20	110	6
158	-25	15	87	12
158	-26	9	64	9
159	-37	6	44	18
157	-30	17	-70	22
158	-20	26	-7	13
158	-12	23	-46	14
158	-3	23	-12	16
157	-1	17	93	19
158	0	13	31	6
158	3	11	-43	-10
158	11	13	-92	-22
158	11	15	-54	-10
159	3	20	-48	-1
158	0	18	-24	8
158	1	11	-15	11
158	6	18	-52	6
158	2	13	-29	14
158	-1	8	-45	14
158	0	17	29	14
158	19	17	80	4
157	39	15	3	-1
158	28	15	46	-5
158	18	23	53	-9
157	11	26	45	-5
158	-6	21	18	4
157	-7	12	-84	15
158	-15	15	-47	12
158	-13	19	56	0
157	4	12	85	-4
158	0	17	40	-5
158	-4	20	31	-6
158	3	23	47	-4
158	8	21	64	-4
158	6	19	27	0
158	5	23	7	2
158	1	17	7	-9
157	0	22	-96	-9
157	1	25	-121	-14
158	0	19	102	-15
157	-17	17	177	-20
158	-66	17	-22	-31
158	-103	17	-33	-19
157	-70	16	-50	-2
157	-11	17	-71	8
158	40	15	-65	14
157	84	15	-45	18
157	110	17	75	23
157	124	16	-17	11
158	112	18	-53	3
158	83	18	70	10
158	45	20	51	7
157	-5	11	52	13
157	-25	9	71	9
158	-20	19	74	2
158	-3	29	92	7
158	9	30	105	2
157	15	21	45	-12
158	33	22	-83	-27
157	38	19	-67	-20
158	19	20	-24	-5
158	16	24	-33	3
158	5	25	-38	15
157	-9	24	-45	23
158	-12	16	-86	26
157	-15	20	-61	29
158	-7	21	74	20
158	-14	19	156	2
158	-23	17	85	-15
158	-23	15	-30	-37
158	-27	22	-41	-23
158	-17	22	-89	-9
157	-13	15	-22	-17
158	-12	15	60	-8
157	-8	16	-5	-5
158	-5	16	-37	0
158	-6	15	13	7
157	-5	10	71	-1
157	-2	13	73	2
157	3	21	39	7
157	1	18	-47	6
157	2	17	-4	15
157	15	17	45	33
157	15	18	71	31
157	11	25	-11	24
158	8	24	-61	13
158	-3	7	17	0
158	-8	12	-21	-12
158	-11	28	-15	-12
158	-14	21	-23	7
158	9	21	13	3
158	16	16	62	-5
158	10	14	121	-12
158	9	19	98	-22
158	5	19	-3	-12
158	15	20	-54	2
158	18	21	-160	-2
158	11	18	-8	-26
157	8	13	54	-31
157	5	21	-100	-25
157	8	17	-10	-11
158	20	18	22	-3
158	30	22	-31	0
158	-3	19	21	13
158	-52	19	-29	14
157	-54	13	-89	9
157	-15	18	-52	-1
157	-24	22	-66	19
158	-42	14	2	27
157	-22	9	168	22
158	37	14	196	18
158	77	19	66	14
157	79	13	52	13
157	77	11	103	9
158	54	19	23	25
158	53	12	30	36
157	52	13	-20	24
157	38	16	-92	7
158	10	13	-27	-6
157	-18	18	50	-17
158	-25	17	58	-17
157	-19	19	-23	-13
157	-10	13	-8	-33
158	-5	18	5	-28
157	-2	30	-49	-4
158	3	29	-38	-6
158	7	22	38	4
157	4	20	90	0
158	8	26	48	2
158	14	23	64	0
158	-2	17	-55	-2
157	-14	16	-145	4
158	-29	19	-60	7
158	-37	15	-67	7
158	-19	11	-28	3
157	-11	12	-43	0
157	0	14	72	-6
158	10	12	212	-4
157	24	17	114	-4
158	31	21	42	-2
158	5	23	61	7
157	5	23	22	0
158	11	22	-29	7
158	4	26	-10	-5
158	4	18	-50	-20
158	16	14	-25	-7
158	23	14	-10	10
158	21	15	2	16
158	9	16	-7	4
158	1	21	-23	2
157	4	21	29	4
157	0	19	8	15
158	2	19	-12	20
158	1	17	-9	20
158	-4	19	4	3
157	-5	17	2	-4
157	-2	12	-3	5
158	-5	12	-36	-7
157	-5	21	13	7
158	0	23	150	14
157	1	17	53	0
158	-1	9	-160	-10
157	1	15	-111	-19
158	6	22	-39	0
158	8	18	-69	0
158	4	18	-4	6
157	3	19	-19	7
158	-4	22	-23	-5
158	-7	21	46	-3
158	10	23	36	-2
158	21	24	11	4
158	14	17	144	2
157	16	11	278	6
158	11	10	135	9
157	18	19	-15	8
158	4	23	108	1
158	-10	25	25	-2
157	3	24	-129	-3
158	-36	19	-16	0
158	-61	23	-75	16
157	-19	24	-84	15
157	-31	19	6	13
157	-22	17	66	11
157	46	14	111	5
158	67	14	53	-8
158	80	19	-44	-11
158	88	25	-91	-2
158	69	17	-66	-11
158	42	20	-42	-10
158	3	22	-5	-21
158	1	15	36	-16
157	14	17	70	-7
157	-8	12	44	-1
158	-6	14	-3	9
157	7	17	-25	4
157	-15	16	-59	9
157	-4	22	-102	22
158	-4	25	-37	30
158	-8	24	47	19
158	-8	19	54	13
157	-6	25	28	2
157	-3	18	7	7
157	-12	8	16	10
158	-17	12	5	-16
158	-16	17	27	-23
158	-7	17	16	-29
157	-5	15	24	-32
158	1	16	24	-17
157	5	15	-46	-18
157	1	17	-37	-17
158	-9	19	-87	-5
157	-15	15	-68	-6
158	-1	9	85	-1
157	7	12	145	17
157	15	20	41	33
157	15	27	-41	47
157	1	22	-54	47
157	2	17	-53	39
157	13	19	111	28
158	25	20	35	15
158	30	25	-64	-2
159	24	15	27	-21
157	15	13	19	-29
157	27	14	171	-32
158	32	17	186	-33
158	20	18	81	-33
158	5	27	5	-30
158	-2	31	-35	-19
157	-1	21	-17	13
158	-3	18	-64	17
157	-5	21	-85	10
157	-3	20	-139	13
158	-3	24	-84	7
157	-4	27	-60	21
158	-5	21	-60	21
158	-6	11	57	12
158	-2	8	169	11
158	2	10	215	13
157	2	8	110	9
157	-4	9	66	3
158	-39	13	111	8
157	-82	6	74	9
157	-53	15	-86	11
157	-12	27	-118	-3
158	-17	25	-24	-7
157	14	22	-40	-10
158	57	16	-38	-23
157	84	17	-43	-20
158	88	21	-18	-21
158	86	13	10	-15
157	68	14	-51	-2
158	35	21	-23	7
158	31	23	10	7
158	32	23	-60	13
158	18	20	-91	19
157	-18	28	-17	20
158	-37	23	10	30
157	-42	16	3	26
157	-38	5	48	16
157	-28	2	99	-5
158	-13	13	86	-22
158	-3	25	24	-22
158	-5	25	107	1
157	0	24	65	22
158	14	26	-62	2
157	12	22	-90	-11
158	4	27	-51	-13
157	11	22	2	-12
158	12	21	-8	-9
157	8	16	47	-9
158	3	11	43	-12
157	9	16	28	-6
158	15	19	-7	7
157	5	18	1	10
157	2	16	18	9
157	0	21	-9	-2
158	-2	18	-7	3
158	-1	15	-58	10
157	-3	15	-102	6
158	-5	17	-77	7
157	-9	17	129	17
158	-6	17	191	17
157	-6	9	-6	9
158	8	16	-29	2
158	15	24	-50	-4
158	6	17	-75	-1
157	7	19	193	0
158	9	16	262	-10
158	-2	15	43	-13
157	-14	19	-25	-6
157	-21	19	-44	-2
157	-17	19	-43	1
158	-7	18	4	0
157	9	21	-42	7
158	21	20	-48	17
157	32	24	8	21
158	40	22	43	10
157	35	17	29	-1
159	27	12	-67	-14
157	23	7	-119	-17
157	20	16	-81	-6
158	22	21	10	-8
157	5	17	124	4
158	-34	11	122	1
157	-72	12	45	-11
158	-38	15	-21	-9
158	-2	20	-6	-11
158	-3	23	22	-8
157	-2	19	-12	-2
157	-4	24	-5	5
157	32	17	-57	22
158	41	14	-92	27
157	41	15	27	15
158	34	17	120	16
158	27	12	126	9
157	44	21	38	-12
158	41	28	-15	-7
158	40	22	2	-5
158	26	26	-51	9
158	12	19	-35	12
157	0	24	-25	5
157	1	21	-51	7
158	3	23	-110	3
158	-5	23	-87	0
158	-9	17	-9	-6
158	-11	20	-8	-20
157	-23	17	99	-29
157	-37	14	129	-22
157	-39	16	95	-19
157	-48	15	73	-18
158	-21	15	22	-13
157	-5	17	-19	-3
158	-4	15	-17	9
157	9	19	26	3
158	7	23	8	2
157	11	23	36	15
157	7	23	32	15
158	4	17	-45	14
158	11	11	-141	21
158	15	19	-335	26
157	21	24	-268	19
157	19	21	90	15
157	18	22	183	10
157	10	12	193	1
157	11	5	347	10
158	11	13	287	3
158	8	18	95	-8
157	-3	27	-18	-7
158	-14	22	-42	-7
158	0	17	-79	-9
158	7	22	-118	2
157	3	13	-37	-1
157	7	11	20	-8
158	0	24	29	0
157	-11	24	18	4
158	-19	15	39	14
157	-6	17	20	16
158	-6	22	-13	11
157	-44	24	13	4
157	-58	22	-31	0
158	-5	22	-66	-1
157	36	21	-56	-1
157	45	26	-42	6
157	56	22	-45	11
158	51	11	-47	18
157	50	9	-56	8
158	40	11	-23	-2
158	40	21	45	-14
158	12	17	67	-27
157	-35	13	133	-18
158	-14	19	146	-14
157	24	16	101	-19
157	30	14	41	-21
157	49	8	-82	-26
158	52	18	-112	-29
157	46	28	-16	-23
158	30	19	61	2
158	16	19	-9	17
157	21	15	-19	20
158	-13	11	-7	15
158	-30	19	-40	12
157	-25	15	25	17
157	-25	18	-11	22
158	-16	17	-46	25
157	-10	19	-40	21
158	-7	15	-22	23
157	-7	11	6	16
157	-8	14	9	4
157	-13	14	45	10
159	-11	15	58	3
158	4	18	-10	0
157	13	22	-45	3
157	0	22	-8	8
159	-4	18	-6	6
157	-7	19	61	4
157	-15	18	89	3
157	-18	14	67	-6
157	-27	21	56	-19
157	-8	17	16	-26
158	5	15	12	-14
158	-2	17	23	3
158	1	17	55	15
158	1	23	2	4
158	1	24	-59	-16
157	12	28	-95	0
158	22	29	-86	2
157	21	19	-21	14
157	17	13	-35	36
158	18	18	55	32
157	18	17	164	10
158	15	16	21	-10
157	14	22	13	-17
157	12	22	40	-22
157	11	20	-19	-10
157	11	15	35	2
158	13	13	59	-4
157	12	18	55	-3
158	3	18	-19	3
158	-30	19	13	-7
157	-63	24	-11	-14
158	-26	23	-69	-21
159	-5	22	-35	-24
157	-5	22	-15	-15
158	38	11	48	-16
157	59	18	-104	0
158	64	21	-140	8
157	45	11	-52	18
157	30	24	21	19
158	12	17	241	6
158	-4	11	252	4
157	11	10	92	2
157	-3	8	-37	11
157	-18	22	-71	4
158	-6	19	-130	5
158	-4	19	-73	15
158	2	25	45	23
157	4	25	33	18
157	-20	20	29	16
158	-45	13	-29	19
158	-20	18	15	11
157	2	21	26	15
158	17	19	-6	9
158	38	17	4	3
157	36	18	49	1
157	42	16	50	-10
158	34	14	-18	-16
157	24	21	5	-21
158	18	26	5	-11
158	3	22	3	9
158	1	15	-5	17
157	9	11	-16	18
157	3	22	-18	10
158	-4	21	-3	21
157	-5	18	28	25
158	-4	20	17	22
157	0	15	1	23
158	-3	13	-26	10
158	-6	15	-41	1
157	-7	15	-55	-14
158	-5	19	-46	-30
158	-4	17	-4	-38
157	-5	15	48	-50
158	-4	17	91	-45
158	-4	17	112	-43
158	1	15	71	-31
157	-1	14	-25	-13
157	-6	18	-101	-16
157	-1	22	-120	-8
158	10	20	-27	4
157	19	14	60	9
157	22	16	129	16
158	10	22	92	11
157	3	19	10	1
158	1	24	-32	5
157	-1	25	-54	-8
157	-10	16	38	-21
158	-21	21	31	-6
157	1	26	25	8
157	15	26	-3	13
158	16	24	17	18
157	16	19	82	28
157	-6	21	52	30
158	-57	14	75	16
157	-49	13	-30	10
158	3	13	-84	8
158	5	14	-50	12
157	21	17	-99	14
157	46	14	-132	26
158	61	9	31	36
158	71	3	262	25
157	53	11	31	7
157	30	16	-175	-19
158	-39	17	-21	-40
157	-75	19	-15	-24
158	-21	26	-55	-16
157	8	17	-2	-23
158	29	19	87	-11
157	49	23	39	-5
157	35	17	36	12
158	52	18	122	18
157	53	19	32	7
158	41	26	21	5
158	22	25	42	-1
158	-20	24	8	9
158	-12	25	-23	11
157	4	22	20	11
158	-5	21	55	18
157	-2	16	40	19
158	-5	13	42	24
157	-7	16	-57	24
157	1	22	-96	13
157	3	13	-30	14
158	1	20	-30	14
158	-14	23	-16	-3
157	-33	13	-16	-17
158	-42	16	-10	-24
157	-30	22	49	-15
157	-27	23	7	1
158	-32	19	-81	11
157	-17	22	-33	4
158	-20	21	56	-4
157	-44	22	73	9
157	-46	21	247	13
158	-1	8	281	3
158	53	13	57	7
158	74	14	32	16
158	87	25	-36	13
157	83	15	-131	4
157	63	-1	-188	-15
158	34	13	-213	-32
158	29	14	-86	-28
157	12	19	1	-10
158	-15	26	38	-9
158	-7	17	-4	-22
158	-1	19	-82	-22
157	12	22	-62	-18
158	17	17	93	-8
158	10	23	118	-6
157	3	22	-15	-10
157	21	20	42	4
158	65	20	38	6
157	36	17	12	-1
158	-21	17	59	-1
157	-47	18	19	9
158	-86	23	3	16
158	-98	22	-28	18
157	-132	23	-19	24
158	-73	23	17	33
157	54	19	99	32
158	53	11	118	18
158	47	15	32	4
158	53	18	-3	-5
158	22	13	7	-18
158	0	8	-44	-25
158	-37	18	-167	1
158	-29	25	-79	15
157	-2	22	15	6
158	13	21	-8	12
158	36	15	26	14
157	30	14	39	9
157	21	18	96	17
158	25	17	51	17
157	25	17	-79	-5
157	25	11	-58	-23
157	19	14	-3	-33
158	15	16	24	-48
158	10	16	69	-49
158	16	22	39	-21
158	20	26	100	-23
157	15	15	68	-19
158	13	14	-43	10
157	5	22	-66	18
158	1	19	-86	36
158	-3	14	74	35
158	-6	18	80	18
158	-4	19	-18	8
157	-3	19	23	6
158	1	20	48	2
157	0	12	0	2
158	3	23	-26	9
157	5	24	-21	5
158	-2	21	-21	0
157	-1	19	26	-16
158	-4	16	52	-18
157	-29	20	-25	-3
157	-68	17	-39	11
157	-42	17	14	13
157	0	23	-26	13
157	14	18	2	14
158	60	20	2	-5
158	90	21	86	-3
157	89	15	228	-7
157	98	17	48	-15
157	127	14	-116	8
158	97	17	-75	17
157	20	19	-58	15
158	1	25	-45	23
158	-46	28	-43	24
158	-103	21	9	28
157	-169	15	47	24
158	-128	17	54	9
158	-17	21	91	9
158	-24	13	77	10
158	-12	13	16	0
157	-5	18	-74	-2
157	-3	14	-58	-6
157	15	15	-51	-36
158	13	21	-74	-45
157	17	22	-37	-32
158	-9	23	-22	-17
158	-37	24	10	-6
158	-33	24	19	-4
157	-5	17	102	-1
158	5	9	144	3
158	35	10	32	9
158	59	13	-17	10
158	75	12	-24	17
157	87	12	-20	17
157	63	15	-31	9
158	60	22	-39	9
158	39	27	3	11
158	19	23	-4	2
158	16	30	-23	8
157	8	30	8	7
158	-3	19	-5	-3
157	-13	9	43	14
158	-17	14	60	16
157	-22	21	8	12
157	-34	18	73	10
157	-37	12	103	12
158	-28	8	52	2
157	-27	13	-57	-11
158	-17	17	-104	-5
158	-6	11	-46	-5
158	-13	17	-55	-20
158	-39	19	47	-14
159	-11	22	111	-10
158	61	30	34	-11
158	90	25	52	-4
158	88	24	101	-12
157	66	18	63	-11
158	47	14	22	-13
158	30	15	-19	-25
157	38	21	-32	-13
159	28	27	-13	4
157	6	21	-9	-3
157	-19	27	27	7
157	-27	31	53	7
158	-19	17	-60	-11
157	-36	15	-166	-2
158	-25	16	-5	15
158	-26	4	198	12
157	-17	9	-6	17
157	1	19	-125	13
158	23	23	34	4
157	19	17	-43	19
158	-4	17	1	16
157	-12	15	42	15
158	-35	13	20	9
158	-39	19	26	8
158	-33	17	3	15
158	-14	21	57	12
158	14	19	-23	15
158	14	9	2	16
157	16	18	-17	7
158	18	25	-54	-2
158	42	24	-4	2
158	58	19	-13	0
158	28	19	-39	-6
158	28	24	-39	-13
157	15	13	72	-14
157	-22	9	123	-17
157	-64	12	97	-16
158	-113	17	-24	-3
158	-14	22	-101	4
158	54	21	-15	6
158	23	19	-7	-4
158	27	14	1	-6
158	-1	16	-6	6
158	2	14	-17	13
158	14	18	12	4
158	1	18	71	9
158	-5	10	131	9
157	-13	18	7	6
158	-5	21	20	11
157	-6	21	18	15
158	3	22	-91	11
158	9	16	-79	-15
158	24	13	-87	-35
158	45	14	-56	-46
157	35	19	-23	-29
158	-10	20	45	0
157	-24	19	103	19
158	11	24	72	34
157	0	18	94	30
158	12	15	120	22
158	45	13	72	12
158	61	16	49	7
158	56	18	0	6
157	32	18	-151	-6
158	12	22	-193	-12
158	-10	26	-88	-1
157	-8	28	-26	-4
158	-1	21	6	-14
158	-2	12	98	-17
157	-3	14	186	-35
158	-2	15	140	-37
158	8	12	-3	-19
158	31	24	-54	-11
157	25	22	50	1
158	-11	16	56	10
157	-16	22	-8	14
157	-27	22	-26	18
158	-23	24	-25	22
158	-1	18	15	21
158	29	19	-4	14
158	31	23	0	14
157	3	19	-23	10
157	-2	15	-64	1
157	-24	19	16	-1
158	-33	23	148	-8
158	-32	15	122	-2
158	-3	15	1	9
158	14	19	-48	12
158	8	25	-66	19
158	8	18	74	18
158	-12	19	29	-5
158	-11	25	10	-13
157	-12	19	32	4
157	-14	20	-77	6
158	-25	17	-20	2
158	-5	15	-66	7
157	18	12	-64	6
157	17	15	-48	13
158	41	18	-50	14
157	36	14	-27	8
158	35	15	-29	19
158	18	14	6	17
158	21	14	55	9
157	31	15	80	11
158	6	19	54	14
158	8	17	86	13
158	11	13	57	7
157	13	10	-36	-6
157	25	22	-15	-19
158	28	29	20	-34
157	12	19	48	-56
158	3	17	24	-49
158	0	19	-105	-26
157	-4	23	-41	-13
157	-1	19	24	0
158	-6	13	-14	6
157	-5	13	29	13
157	-9	17	40	1
157	-8	17	60	-4
158	-13	15	52	12
157	-12	16	-8	6
158	-45	14	-60	5
157	-72	19	-18	2
157	-14	21	23	8
157	22	19	1	4
158	47	18	2	4
158	116	11	-9	8
157	137	19	-21	6
157	111	28	7	10
158	68	17	93	11
158	3	9	66	18
158	-52	13	-54	8
158	-136	19	-45	-6
158	-135	22	-59	-10
158	-17	28	-111	5
158	-13	24	-48	-1
158	-21	22	-28	-1
156	-15	17	13	14
158	-20	22	105	17
158	19	28	167	20
159	12	18	186	17
158	14	21	79	16
157	8	19	17	13
158	7	17	-62	2
157	22	14	-95	-16
158	18	19	-36	-25
158	11	15	65	-35
157	3	13	249	-33
158	4	18	102	-8
158	-3	29	-144	-5
158	-26	23	-80	-6
158	-29	17	-88	-3
157	8	17	-99	0
157	9	16	26	7
157	13	19	80	9
158	26	15	90	12
157	36	19	-7	7
158	60	17	29	10
158	53	13	39	6
158	45	8	14	-12
158	19	17	41	-12
158	2	22	1	2
158	8	18	16	11
158	2	21	35	10
158	1	15	63	12
158	-12	21	35	7
157	-4	22	-4	-1
157	24	21	-126	11
158	18	29	-171	25
157	16	22	-24	22
157	26	19	-6	22
157	18	21	6	7
158	10	23	9	-7
158	7	24	27	-19
157	0	16	48	-22
158	-17	17	-27	0
157	-33	18	19	-5
158	-47	17	52	-6
157	-37	17	25	-11
158	-27	14	-47	-24
158	-24	16	-96	-32
157	-33	17	-36	-16
159	-81	21	-18	-4
158	-68	17	-25	0
157	-5	17	-49	3
157	31	19	-61	19
157	84	13	-69	39
159	107	6	-55	51
158	117	11	78	39
158	106	12	141	23
158	64	13	20	21
158	31	16	96	9
158	-11	10	174	2
158	3	19	44	2
158	14	29	55	-19
157	-18	24	31	-28
158	-22	25	34	-11
158	-31	23	59	-14
159	-38	23	-14	-29
158	-25	23	6	-40
157	-3	21	-3	-33
157	6	23	20	-16
157	-13	24	40	-3
158	0	20	-23	3
157	1	16	-49	4
157	38	15	-40	13
157	103	16	-19	14
158	79	16	-19	6
158	45	12	-20	4
157	10	13	-7	7
157	-47	15	23	7
157	-125	14	46	10
158	-185	7	25	18
157	-93	16	17	14
157	-58	21	80	9
158	-79	13	52	22
158	-13	14	-10	17
158	-11	18	17	4
158	32	26	-15	9
157	82	28	-18	13
157	106	22	17	3
158	111	24	-39	-2
158	68	22	-44	-7
157	51	25	-26	3
157	20	26	-3	4
157	-13	18	16	6
158	-26	21	-16	4
158	-18	17	-9	2
157	-3	13	10	2
157	-1	15	143	9
157	4	24	137	13
158	10	24	-32	3
158	10	16	-12	7
157	18	16	-94	-1
158	22	14	-136	-3
157	-9	10	-71	-1
158	-40	16	-59	-3
157	-25	16	-6	-8
158	-17	12	54	-21
158	-6	10	115	-12
157	43	20	38	-13
158	35	20	49	-16
157	40	23	2	-8
157	63	35	-94	-8
158	63	27	-58	3
157	47	19	-22	9
158	23	19	46	11
157	17	17	6	-4
157	4	16	104	-9
157	16	19	167	2
157	33	23	-1	-5
158	3	19	15	-11
158	-20	18	98	-6
157	-31	14	131	-4
158	-39	10	46	5
157	-25	12	-106	13
158	-2	10	-86	-3
158	12	17	1	-4
157	-15	20	31	-6
158	-13	18	16	-5
158	-16	24	-21	10
158	-34	19	-41	4
158	-10	21	-19	17
157	-6	17	-29	28
159	-1	14	-34	23
157	8	15	-10	22
157	16	17	5	15
157	22	14	-5	9
157	35	17	-50	9
157	35	19	-8	11
158	22	19	45	-8
158	18	22	2	-6
158	5	20	-20	9
157	2	21	1	6
157	3	16	35	10
157	12	13	48	16
157	15	15	78	17
158	-5	14	118	18
158	-17	15	103	9
158	-14	24	88	-12
158	37	25	31	-35
158	81	20	-22	-60
157	55	15	-70	-41
157	23	10	-97	-29
158	-45	9	-45	-43
157	-96	14	24	-28
157	-132	17	20	-13
158	-121	25	-56	-7
158	9	24	-7	9
157	26	18	-16	11
157	33	14	-66	18
157	50	12	-10	10
157	31	16	33	4
157	54	13	164	0
158	30	15	96	-9
158	25	14	-75	-1
157	29	19	4	0
157	41	26	-23	6
157	42	25	-16	14
158	18	26	29	16
157	-2	20	16	22
157	-52	11	-5	26
158	-91	14	-102	17
158	-50	28	-29	17
157	-10	25	-12	20
157	18	16	3	17
158	58	9	74	17
157	50	7	22	-3
158	47	15	2	-26
158	36	18	-73	-14
159	14	31	12	3
158	-6	25	148	-8
158	-26	25	41	0
157	-6	27	-57	2
158	-2	21	-81	0
157	-2	19	-15	-4
157	-2	17	49	-8
158	1	24	64	4
157	14	23	72	9
157	22	24	2	18
158	13	19	0	17
157	3	22	34	13
157	12	24	5	11
157	6	23	21	1
157	10	22	8	2
158	5	15	32	0
158	-1	15	31	-6
158	8	17	-16	-4
157	12	21	-19	0
157	5	19	-12	9
157	1	12	26	5
157	-2	14	-48	3
158	3	18	-25	-3
157	29	13	45	-7
157	52	14	17	0
158	34	17	89	11
158	13	9	57	14
158	1	17	7	2
157	-20	19	-14	2
157	-42	13	-51	7
158	-39	15	-52	12
157	-30	15	-97	9
157	-77	19	-5	2
158	-71	14	96	3
157	10	10	126	-8
158	63	16	126	-14
157	71	16	72	-7
158	20	16	-16	-11
158	-3	13	-147	-10
158	-9	11	-75	-7
157	-80	8	89	-3
158	-72	17	188	7
157	42	18	30	7
157	42	29	-81	-2
157	44	29	-26	-11
158	50	25	-129	1
158	35	22	-105	18
158	69	19	-60	17
157	45	23	1	-7
158	49	22	35	-15
158	20	22	25	-9
158	7	24	14	-13
158	17	24	2	-22
157	-14	19	16	-8
158	-24	13	4	9
158	-29	11	35	12
157	-16	12	2	14
157	3	15	-29	19
158	24	18	-48	21
158	16	14	-5	6
158	13	17	19	0
157	10	24	0	-10
157	-6	25	30	-1
157	-17	26	47	11
158	-17	26	57	1
158	9	25	47	-5
157	9	19	34	-18
157	3	17	40	-17
158	13	21	90	-26
157	37	20	93	-14
158	37	17	28	11
158	31	22	-99	23
158	21	24	-69	25
157	-41	15	-15	24
158	-92	19	-87	28
157	-51	17	-73	24
158	27	17	-81	20
158	-14	21	-54	-2
157	-51	22	-1	-16
158	-48	22	106	-32
158	-19	12	192	-32
157	22	10	178	-36
158	-3	13	82	-34
158	22	17	-64	0
158	18	23	4	-3
158	-3	17	64	-1
158	-36	19	-9	10
157	-41	13	-81	7
157	22	22	-144	-7
157	28	21	-95	-10
158	54	12	-32	7
157	80	18	32	7
157	93	18	45	15
158	98	17	68	15
158	64	22	128	19
158	37	25	94	17
158	-5	16	49	16
158	-23	5	-3	12
158	-36	14	-13	10
158	-54	18	-21	15
159	-22	18	-11	12
158	8	25	-23	7
158	-4	19	-31	-6
158	-4	17	-17	-9
158	-5	19	-57	-9
158	-2	20	-33	-5
158	-1	19	-3	0
158	-9	14	13	-1
157	-6	15	-6	13
157	-2	14	-7	14
157	9	15	12	18
157	10	19	8	20
157	6	14	84	4
157	-13	15	48	-7
158	-10	14	-15	-4
158	21	13	-19	-1
158	24	22	-8	-2
158	32	24	93	10
158	33	18	14	1
158	29	14	-6	-9
158	28	18	68	-15
157	5	19	43	-3
158	0	12	52	0
157	22	20	-52	4
157	11	29	-86	11
157	-6	23	-22	4
159	-11	22	-61	9
158	-3	22	-47	-6
158	-4	23	50	0
158	-25	28	63	-6
158	7	27	-4	-12
157	20	26	51	-12
158	-3	21	57	-12
157	-50	13	29	-10
158	-1	13	50	-14
157	97	15	31	-8
158	29	14	24	-10
158	-6	19	-3	1
158	-84	17	-6	5
157	-119	6	-27	11
157	-28	9	-31	8
158	18	12	-28	0
157	38	17	-33	0
157	44	21	-3	1
158	66	18	14	8
157	48	20	33	11
158	46	21	4	14
157	31	18	7	15
157	17	19	27	14
157	8	15	25	12
158	-3	14	33	4
157	0	16	9	-5
157	-23	18	-66	-13
158	-10	20	-92	-17
158	-11	17	42	-16
158	-9	19	70	-6
158	5	22	10	9
158	5	14	14	23
157	3	15	26	14
158	-8	26	39	-5
157	-20	22	10	-7
158	-31	13	6	2
157	15	14	-2	4
158	48	17	-14	6
157	35	18	-23	12
158	39	25	-15	10
158	25	16	3	4
158	16	16	-1	3
158	-3	18	61	1
158	-45	16	89	-7
158	-37	16	46	-6
157	-3	17	-11	-9
157	-3	23	-13	-2
158	-7	28	22	9
157	-15	21	26	6
158	-13	13	-18	9
158	3	15	-72	-4
157	2	18	-73	-17
158	9	23	-23	-4
157	19	22	39	5
158	16	17	45	2
158	17	16	-26	1
158	2	16	-49	-1
158	-26	16	7	-6
158	-23	18	-15	-7
158	22	15	-21	-4
157	35	12	53	6
158	62	15	129	9
158	66	22	51	-4
158	-10	22	-23	-7
158	-106	19	-42	4
157	-131	18	-50	-1
158	-8	23	36	-12
157	34	27	2	-8
158	43	21	-30	15
158	62	26	-66	25
158	59	29	-36	22
157	94	21	19	15
158	60	18	34	2
158	56	11	56	-10
157	37	11	56	-19
158	7	13	141	-11
157	7	7	107	-10
158	-2	8	23	-17
158	-3	16	4	-12
157	-17	20	10	0
157	-14	22	51	6
158	-17	22	34	7
158	-14	23	37	11
158	-8	21	72	12
157	-10	11	13	3
157	-8	17	-104	-5
158	3	27	-102	-3
157	11	13	-14	14
158	4	14	-59	14
157	-3	18	-60	6
159	-6	15	12	9
158	1	24	-19	8
158	5	24	-95	12
158	2	22	-122	10
158	17	19	3	2
158	-3	18	116	12
158	-19	22	26	21
157	-28	17	4	19
158	-38	17	70	19
157	-4	14	30	6
159	23	22	53	-3
157	42	24	37	-5
158	24	15	47	-6
158	-6	14	48	0
158	-7	17	-32	-2
157	-27	20	-14	-12
158	-35	15	7	-25
157	-28	16	10	-32
158	2	24	-2	-11
158	27	24	0	2
158	17	25	1	3
158	25	17	15	4
157	17	15	8	7
158	3	13	-14	2
158	3	15	4	-1
157	-1	19	-5	-1
158	16	7	2	-14
158	29	1	35	-20
157	0	17	72	-14
157	-94	25	59	-3
158	-128	25	14	16
157	6	27	12	19
158	77	17	-31	17
158	89	18	-97	2
157	150	17	-86	-7
158	122	17	-23	-1
158	49	17	0	-4
158	-26	13	16	4
158	0	19	28	8
158	56	23	36	4
157	-6	27	38	12
157	28	24	-17	13
157	0	21	-23	0
157	-20	23	13	-3
158	6	15	17	15
158	-25	10	36	12
158	-7	10	45	-3
158	-12	11	10	-1
158	54	17	-26	1
158	55	24	-7	-2
157	38	19	48	-5
158	38	17	65	-3
158	-42	20	74	-7
158	-96	19	93	0
158	-166	13	49	6
157	-98	25	-12	-6
157	15	24	7	-1
157	4	15	12	14
158	1	19	-22	15
157	26	15	-8	6
158	47	8	-11	1
158	33	7	-6	8
158	19	19	-28	7
158	7	22	-37	4
158	-96	16	-37	0
158	-227	20	-34	2
158	-209	15	-29	5
158	-31	14	-6	4
157	88	16	26	1
157	145	19	28	-6
157	178	29	27	-9
157	130	27	-10	-13
157	111	23	-27	-5
158	71	19	-16	7
158	39	21	31	7
157	21	25	72	10
157	25	34	38	2
158	19	30	9	4
158	-24	14	17	8
158	-14	16	-35	-8
157	-24	20	-78	-18
157	-13	15	-19	-12
158	-12	4	19	-5
158	-17	3	39	0
158	-29	11	82	2
157	-32	9	120	5
157	-9	13	70	5
157	0	14	6	9
157	10	11	1	14
158	0	22	-62	13
158	23	33	-77	8
158	34	34	-59	7
158	22	19	-30	-6
158	25	15	29	-5
157	37	18	48	-2
157	57	11	113	0
157	122	5	52	15
158	148	7	-121	11
157	64	11	-61	4
158	24	9	-27	-14
157	-38	19	-75	-20
158	-118	19	-6	-18
157	-212	11	6	-15
157	-231	6	53	-7
158	-61	0	48	2
157	-11	13	27	10
157	-8	34	45	12
157	24	46	58	14
158	12	36	94	9
157	47	29	19	4
157	49	25	-14	-4
158	24	30	47	-17
157	-21	29	111	-8
157	4	15	33	8
158	89	18	-123	15
158	99	26	-90	17
157	63	14	6	4
157	20	10	-9	8
157	-59	5	16	10
157	-178	-5	20	9
158	-208	10	2	9
157	-66	22	19	5
157	46	27	22	11
157	46	24	35	8
158	105	22	-34	7
157	119	19	-70	4
158	128	20	-35	-4
158	97	26	0	2
158	48	25	16	3
158	33	29	-12	-2
158	3	28	8	-1
158	22	19	41	-5
159	10	24	-4	-12
158	19	24	-25	-2
157	-12	15	25	7
157	-29	4	53	0
158	-4	7	24	-1
158	0	18	30	7
157	11	22	119	9
157	-3	22	107	1
157	-2	-7	-1	-3
157	-21	-28	-66	-2
157	-3	-2	-33	-10
158	11	18	39	-21
158	17	7	19	-14
158	26	18	5	-7
158	10	17	-47	-7
157	1	-5	-75	0
158	-9	43	21	-1
158	-16	117	70	2
158	-29	76	5	9
158	-20	5	-62	13
158	-9	30	-36	4
158	-15	15	1	1
156	-24	8	0	-2
157	-43	10	6	-6
158	-31	9	34	6
158	10	17	32	-1
157	41	8	16	2
158	58	24	-8	0
158	39	7	-12	2
158	4	3	42	8
158	8	7	95	14
157	-31	0	98	16
157	-72	-2	-36	17
157	-29	1	-137	18
157	42	8	-13	4
159	23	8	19	0
157	47	36	-26	-11
158	61	54	0	-4
158	-1	42	-8	1
157	-89	24	19	-6
157	-60	25	24	-6
159	95	30	27	-6
158	54	36	29	2
157	9	14	19	3
158	-6	-34	19	-4
158	-10	-31	2	-12
158	11	-19	2	-11
157	-1	-19	9	6
158	16	2	15	4
158	-3	40	8	0
157	7	130	9	7
158	14	139	9	3
157	28	35	10	3
158	18	-35	8	0
158	11	-14	-3	-2
158	-1	53	-4	6
157	-35	33	2	16
158	-13	-24	-1	16
158	0	5	-12	4
157	12	26	-1	2
158	1	7	22	5
157	5	-13	36	6
157	8	-35	59	-4
158	35	-8	77	-7
157	47	19	41	-2
157	39	22	-27	-8
158	41	11	-24	-8
159	21	2	22	-5
157	9	30	35	-7
158	-21	31	37	3
158	-13	27	-54	8
158	8	54	-142	4
158	9	75	-48	4
158	11	48	3	2
157	12	27	-12	4
157	-7	13	13	5
158	-35	-28	8	2
157	7	1	20	0
157	44	3	25	4
159	17	12	20	6
157	1	55	-7	0
158	-27	13	-17	1
158	-50	19	23	-4
158	-85	40	38	-6
158	-41	35	38	-8
158	40	6	25	-1
158	-31	5	28	4
157	-67	19	33	8
157	-48	22	28	11
158	-20	17	36	8
158	-16	6	27	2
157	5	11	5	-2
157	82	6	-13	3
159	103	12	17	2
157	120	15	42	-9
158	124	19	61	-8
157	141	15	80	-2
158	168	22	-24	6
157	141	37	-108	12
158	56	35	-29	7
158	-26	32	-5	12
159	-121	20	-36	15
158	-199	4	-26	1
158	-213	4	-31	-16
158	-86	17	4	-16
158	10	9	13	-6
157	-25	13	15	0
157	-4	17	0	2
158	-24	14	-25	0
157	-4	14	-13	-2
157	26	-2	-31	0
158	19	-32	-17	4
158	24	-29	0	10
158	12	-17	19	4
158	26	-7	59	2
157	10	7	118	0
157	20	58	118	-1
157	16	144	15	-2
158	3	131	-35	0
158	24	51	-2	4
157	36	22	36	1
157	48	22	-8	7
158	50	14	-49	-1
157	28	13	-24	-2
158	-9	11	-3	-2
158	-66	34	5	4
157	-172	58	8	13
158	-164	23	30	8
157	-23	-6	65	4
157	44	-17	72	-13
157	55	-9	-43	-12
158	94	48	-109	3
158	91	28	-20	4
158	72	-3	-28	10
158	54	10	-15	7
158	43	-37	-1	7
158	21	9	-29	-3
157	13	38	27	-9
157	27	4	13	-5
158	13	27	18	4
157	7	11	24	10
157	-5	-3	40	-3
158	-7	3	53	3
157	-27	5	26	4
158	-58	-10	42	-1
157	-48	-16	23	2
158	-13	-31	1	-1
157	25	-44	-2	-9
157	40	-15	17	-9
157	40	9	39	4
157	40	52	31	0
158	22	99	46	-1
157	11	61	32	-2
157	-6	-6	-70	8
157	-20	7	-73	12
157	-5	3	21	6
158	-14	14	12	15
158	-15	34	12	3
157	10	49	-13	0
159	30	91	-14	0
157	65	76	27	-12
158	115	72	-28	-3
158	110	68	-21	1
158	36	55	9	8
158	14	29	32	11
158	-44	14	39	9
157	-131	10	48	13
158	-163	1	65	7
158	-37	5	24	-4
157	55	-2	-21	-5
158	-15	1	-21	-7
158	30	7	13	-4
157	15	8	7	-2
157	-106	7	13	0
158	-186	10	21	-4
157	-104	14	16	-1
157	-4	25	18	7
157	1	38	-20	9
157	79	44	-15	15
158	94	25	9	10
158	101	10	-6	-1
157	82	3	1	0
157	40	-7	6	1
158	12	-4	-4	-5
157	-17	-18	-26	-7
157	-6	-34	-21	-25
158	1	-17	-1	-25
158	0	-2	-11	-4
157	-35	11	-2	-4
158	-35	23	8	4
158	11	54	9	0
158	37	97	15	4
158	30	45	15	11
157	31	31	18	2
158	35	29	19	1
158	35	-28	19	3
157	36	-6	33	0
158	37	11	49	-4
157	25	23	45	2
158	35	28	35	7
158	72	31	8	7
157	64	32	-61	12
158	58	22	-51	8
157	20	17	8	1
158	-37	12	-17	7
157	-45	25	5	0
158	-31	22	30	4
157	-24	13	28	8
158	-23	2	40	17
157	-28	-6	17	16
157	-38	26	15	-6
157	-22	51	10	-15
157	64	34	9	-17
157	149	14	-1	-11
158	72	15	-9	-15
158	-29	12	1	-7
157	-94	6	-6	1
158	-180	25	20	3
157	-267	43	66	12
157	-172	27	-2	10
158	82	18	-105	11
158	127	10	-15	11
157	138	7	36	9
157	80	-6	27	8
157	33	-12	50	1
158	38	10	2	2
157	-23	-18	6	-10
158	4	-10	-16	-15
157	5	11	2	-4
158	-9	17	37	-1
157	-25	50	35	3
158	-12	68	47	-7
159	10	50	-9	-5
157	26	17	-58	7
158	24	4	-43	3
158	0	22	15	0
158	12	47	32	4
157	12	5	41	4
157	17	-6	15	14
158	19	13	-9	17
158	18	6	8	21
157	10	18	-1	14
157	6	27	7	-2
158	-1	32	-13	-6
159	-32	21	-16	-10
157	-48	18	12	-6
157	-22	8	27	7
157	8	7	7	-3
158	15	7	8	6
158	32	2	8	13
157	43	-1	2	3
157	69	-34	29	4
157	97	-37	37	7
159	118	-33	35	11
157	67	-40	12	3
158	5	-14	-12	2
157	-17	47	-16	-4
158	-96	113	0	-5
158	-133	114	20	-2
158	14	155	5	-1
157	110	130	-1	6
158	-6	45	5	2
157	13	34	2	8
157	-22	3	-15	7
157	-128	-1	-9	-2
158	-148	-14	36	-4
157	-117	2	68	-12
159	30	16	-6	-2
157	29	0	-108	12
158	41	-14	-42	2
157	34	-52	25	4
158	30	-1	5	9
157	62	109	23	4
158	42	121	2	9
157	80	49	14	7
157	41	34	51	12
158	35	10	103	-1
158	24	-2	127	-12
157	12	-12	-13	0
157	-8	-26	-124	-5
157	-24	-20	-52	-8
158	3	-1	13	2
157	12	50	9	7
157	27	35	18	4
157	15	-2	-1	6
158	-7	9	-18	-4
158	-34	30	-4	-8
158	-38	44	19	-11
157	-29	39	6	-7
157	-13	35	1	-1
158	3	39	-3	4
157	16	19	-4	6
158	41	-18	31	2
157	23	-65	29	5
157	-11	-20	29	-1
157	-39	28	51	-1
158	-44	-40	58	7
157	-36	-27	30	7
158	-11	-9	-7	-5
158	51	14	-15	-10
158	88	72	-4	-2
157	106	33	9	0
158	96	10	0	-5
157	29	-14	-9	-1
158	-36	-30	-17	7
158	-84	-5	-14	0
158	4	-20	-18	-3
157	42	-30	-15	-4
159	-18	26	15	-1
157	-3	57	22	-4
158	-35	50	22	4
158	-18	62	26	7
158	-6	90	24	4
157	-22	77	7	11
157	28	51	3	3
158	100	15	-9	-2
158	63	-10	-17	4
158	43	16	2	3
157	49	12	1	-7
158	-67	14	-1	-3
157	-149	22	0	-4
158	-83	68	6	0
157	24	58	13	3
157	-46	-16	11	-1
158	-23	8	25	0
158	24	26	29	-2
157	-12	23	21	0
157	8	13	-9	1
158	-1	35	-8	7
158	32	59	22	13
158	12	-1	19	14
158	-1	-14	16	12
158	48	31	13	8
158	39	10	52	7
158	4	5	69	2
158	-13	4	-24	5
157	44	24	-100	-7
158	69	35	-15	-15
157	14	8	89	-1
157	30	-2	68	-11
158	-12	-21	-57	-4
158	-23	9	-152	3
157	29	17	-36	1
158	-17	50	25	7
158	-64	75	12	4
157	-54	9	28	13
157	-42	-7	23	5
157	-60	2	45	1
157	-6	-7	22	-2
158	99	8	-3	-9
157	116	10	3	4
158	144	13	6	6
157	182	12	-4	-2
158	79	3	15	-10
158	40	19	16	-6
158	25	48	13	-4
158	-65	35	26	0
157	-170	10	27	-1
158	-178	48	40	4
157	-104	23	46	6
157	-106	-9	40	0
158	9	1	13	0
158	80	-13	-25	0
159	83	2	-51	7
158	106	27	-25	7
158	17	50	-3	6
157	-46	50	5	0
158	-68	41	18	-3
158	-26	45	-2	2
157	1	38	20	5
157	-5	17	39	9
158	-38	11	31	4
157	-124	10	21	-3
158	-70	41	13	6
157	26	65	14	6
158	37	41	-10	-4
157	47	30	-15	-2
158	82	4	-3	2
157	108	-17	2	13
157	124	-50	-1	10
158	84	-29	9	11
157	62	24	14	11
159	44	-18	-3	0
157	-2	-34	-12	-14
157	-28	-72	10	-13
157	-31	7	32	-5
157	-49	114	28	-1
158	-83	1	16	0
158	-48	-11	-8	9
157	80	14	-26	12
158	128	42	0	4
157	85	120	31	7
158	61	135	56	3
157	-12	124	31	-2
158	-35	80	-34	-13
158	-36	-1	-34	-20
158	-39	-55	7	-6
157	-21	-82	45	-4
157	-12	-86	56	0
158	10	-29	-7	20
158	-18	19	-56	17
159	-29	24	-12	-15
158	45	23	-18	-7
157	91	37	-15	12
158	64	22	37	7
158	80	35	49	4
158	-39	25	97	-15
157	-150	22	3	-6
158	-101	24	-133	8
158	-3	1	-28	7
158	-9	-1	66	3
157	-63	14	19	-2
157	-12	22	-11	3
157	-14	51	-55	-1
157	46	81	-10	-4
158	33	7	12	4
158	10	-16	-6	6
158	-4	2	23	1
158	-27	6	6	1
157	-11	19	25	2
157	-4	34	17	4
157	74	66	18	8
158	94	68	15	4
158	67	43	31	9
157	-1	25	50	7
158	-22	23	13	1
158	-80	23	-8	-8
157	-157	1	10	-5
157	-102	-20	37	3
158	3	-6	4	0
158	32	-7	-21	2
159	37	6	-18	2
157	63	19	5	2
158	60	21	4	4
157	93	32	10	-2
158	52	48	17	-1
158	-12	45	14	0
157	-48	26	21	0
157	-18	23	10	3
157	-1	16	18	6
158	10	30	5	4
158	45	8	7	-1
158	-17	-34	11	0
157	-41	-41	1	-1
157	9	6	-3	0
158	30	47	-6	4
157	43	22	9	7
157	130	3	0	13
158	139	10	6	7
158	73	16	12	3
158	83	10	12	9
158	42	12	21	7
157	-54	3	49	8
158	-73	-3	48	7
158	20	13	28	-1
157	86	22	36	-18
158	-4	34	-29	-6
158	-3	47	-104	0
158	-9	43	-40	-18
157	-46	37	35	-6
159	-4	44	56	-4
158	-32	39	9	7
158	-73	38	-106	8
157	-95	26	-36	-6
158	-40	13	42	0
158	-1	18	-6	-2
158	-48	14	13	4
157	-44	14	7	7
158	-12	16	19	0
157	20	11	22	1
158	-17	9	15	7
157	-44	3	25	0
158	-12	-1	14	-4
158	-44	0	33	2
157	-41	5	47	4
157	20	10	59	-5
158	75	17	10	0
158	72	26	-68	9
158	66	39	-28	-1
158	36	50	23	-3
157	28	47	-10	0
157	50	28	6	-4
157	21	27	16	0
158	-5	24	24	2
158	-15	18	38	0
157	23	14	29	12
158	7	-1	22	21
158	33	1	-8	18
157	115	17	-9	-2
158	108	21	5	-16
157	47	10	-1	-10
157	7	6	-30	-14
158	-47	-10	-8	-10
158	-140	-25	0	-3
158	-128	-50	-16	-2
157	-63	-10	1	-1
157	-105	61	2	-4
158	-86	31	11	6
157	21	97	21	4
158	31	82	45	0
157	92	-22	31	3
158	122	-45	32	9
157	105	-135	45	14
157	107	19	15	7
158	37	164	-10	-1
157	-18	88	-28	-9
159	-66	127	6	-6
157	-46	68	13	1
157	-25	-22	0	-1
157	-35	-37	4	2
158	-9	2	5	6
157	15	67	6	5
158	37	52	-5	7
157	22	34	5	8
157	21	-10	8	6
158	-28	-22	19	2
158	-113	-4	35	-1
157	-96	1	35	7
158	28	-7	-7	16
158	87	-10	-45	10
157	42	-11	-22	-10
158	24	6	-18	-5
158	84	23	-9	9
157	158	8	53	-1
158	75	11	127	-5
157	33	15	68	-6
157	-28	49	-144	9
157	-48	46	-145	1
158	-2	14	7	-4
157	-51	2	-1	2
158	-24	8	45	-6
157	-33	2	29	0
158	-26	-19	23	1
158	-51	-15	67	6
157	-77	11	9	10
157	0	38	26	8
157	58	47	19	0
158	45	52	16	-4
158	-44	52	33	-3
158	-43	29	40	0
158	-48	23	20	4
158	-81	33	-16	4
158	-24	15	-30	2
158	81	8	-18	-11
158	110	8	16	-10
157	119	26	18	-10
158	114	44	29	-2
157	39	39	8	3
157	34	37	-4	0
158	22	22	-19	4
158	2	27	-23	2
157	-19	21	-10	8
158	-23	-3	-7	7
158	1	0	21	9
158	38	32	8	13
158	63	29	-21	19
158	31	8	17	20
157	10	40	57	5
157	-37	47	-5	-6
158	-107	27	-9	-18
157	-119	5	25	-20
158	-24	-32	12	-7
158	-3	-39	-12	-4
157	-14	-20	-27	-3
158	35	37	1	-2
157	17	53	-3	-2
158	27	-27	6	-1
157	37	13	20	2
157	37	70	33	3
158	26	59	54	-4
157	60	26	37	2
158	83	1	0	3
157	-54	28	-24	3
157	-144	14	7	11
157	-97	19	19	13
157	-89	4	15	18
158	-119	6	16	15
157	-4	7	5	-11
158	122	5	15	-12
157	149	12	50	-4
158	99	9	63	-6
157	-30	24	-46	3
157	-101	29	-119	12
158	-68	35	-12	12
157	-13	30	29	13
158	18	27	8	4
157	33	13	12	3
157	67	15	-15	4
158	17	11	12	-6
158	-16	29	20	-12
158	32	22	9	-14
158	12	-15	24	-9
157	30	3	59	2
158	100	-4	92	2
157	106	12	28	2
157	80	29	-52	3
158	46	26	-42	-2
157	19	17	-26	1
158	26	1	-16	-6
158	58	18	3	1
157	23	37	-11	9
157	-25	40	-6	7
157	-88	15	-5	10
157	-175	5	14	7
157	-160	14	25	7
158	-60	26	30	-2
157	-5	15	37	-5
158	12	-6	6	0
157	97	4	5	3
158	117	6	21	1
158	70	2	3	0
157	30	2	-19	-6
158	-16	24	-11	-13
157	-15	42	-1	3
158	-11	58	7	11
157	-37	40	21	11
157	-30	31	19	5
158	-5	36	10	-12
158	11	-2	22	-10
157	40	-15	36	6
158	48	-2	30	6
158	48	16	-7	4
158	35	24	-36	-1
157	40	-8	-34	-10
157	90	-71	13	-13
159	52	-63	66	-1
157	-32	-51	71	13
158	-69	10	46	9
158	-96	211	-6	14
157	-114	192	-56	16
157	-89	83	-48	7
157	18	67	-4	4
158	-34	38	33	2
157	-118	25	40	3
158	-72	29	-11	6
157	-35	41	-28	4
157	29	14	-1	2
158	68	9	-8	0
158	157	-15	-3	-4
158	208	-16	-14	-4
158	175	-2	-9	-2
158	27	-14	-2	1
157	-130	-7	0	1
158	-150	0	41	-13
157	-162	9	112	-6
158	-9	15	113	-1
158	59	22	-24	2
157	87	34	-83	13
157	126	39	-1	4
158	46	14	23	3
157	52	4	7	-1
157	36	8	28	0
157	107	-11	0	-5
157	89	-11	7	1
157	-1	31	2	7
158	5	48	-9	0
158	-55	-15	27	4
158	-134	-12	17	-5
158	-171	52	-22	0
158	-126	19	10	2
159	-80	-5	77	0
157	2	-26	11	-2
157	62	2	-97	6
157	86	33	-52	3
158	99	24	9	-7
158	83	47	-7	-5
157	117	31	15	-8
157	91	50	22	3
158	24	61	28	3
157	-6	56	44	7
158	-34	46	19	10
157	-87	33	13	2
157	-123	37	8	-2
157	-51	8	1	-6
157	-17	-50	-3	-1
158	-73	-57	13	0
158	-83	-33	18	2
157	-56	-40	15	2
159	46	-14	16	4
157	175	-22	14	9
158	205	-7	20	13
158	147	0	0	11
159	59	-17	-6	3
158	-48	32	-16	0
157	-7	50	-15	-6
157	7	107	12	0
158	-75	139	11	2
157	-106	52	-2	-1
158	-141	28	-29	5
158	-35	51	-32	4
157	10	36	5	8
157	35	36	39	10
158	111	33	33	3
158	136	30	35	-1
158	117	27	32	-1
158	38	7	18	-3
158	-6	-5	26	-3
158	-51	4	30	0
158	-29	6	16	5
157	-16	-3	-25	0
158	-28	0	-22	-2
157	-27	1	2	-1
158	-42	7	3	0
158	-17	9	37	17
158	-5	9	43	12
157	29	10	13	0
158	77	17	-15	-1
158	51	25	-4	0
158	-11	27	-22	-1
158	-49	31	-51	0
158	-118	17	-12	2
157	-179	-8	-24	-4
158	-95	-17	-18	-4
158	53	-17	23	-2
157	69	-1	51	-11
157	58	28	96	-9
157	31	80	29	0
158	-59	87	-81	2
158	-78	20	-44	12
158	-35	-1	45	20
158	18	1	4	1
159	89	32	8	-7
157	162	30	21	4
158	150	6	0	0
158	86	18	23	-10
158	23	23	9	-10
157	28	65	22	-4
158	61	82	37	4
158	28	68	37	3
158	-37	43	19	-3
157	-61	22	-24	-1
157	-29	30	-28	-4
158	-8	-4	39	-4
157	12	-36	43	6
158	-6	-48	-47	11
157	-61	-97	-61	15
158	-136	-43	6	6
159	-110	-27	10	3
157	-13	-35	8	4
158	19	24	22	5
158	72	6	12	6
158	145	23	25	0
158	183	17	22	0
158	95	-1	22	1
158	35	17	12	2
158	-31	87	10	3
158	-75	88	12	7
158	-26	83	-9	-5
157	-39	103	-9	-2
157	-9	28	-4	10
157	17	51	4	-3
157	68	40	-24	-2
158	71	27	-27	-6
158	10	15	14	-6
158	3	-5	29	6
158	-59	0	21	3
158	-131	3	8	6
158	-152	14	4	6
158	-50	11	19	2
158	12	9	23	-5
157	-23	-26	6	-10
157	-50	-36	1	-6
157	-16	-38	4	3
158	59	-37	16	9
157	1	-35	15	11
158	-41	-15	12	2
157	-8	72	15	-7
157	47	148	12	2
157	47	94	12	1
158	32	32	14	6
158	19	47	24	7
158	87	25	13	-2
157	175	-13	-7	2
158	119	3	12	-1
158	106	30	68	-8
158	61	22	21	-4
158	-8	28	-110	3
157	2	89	-56	-3
158	5	84	66	-1
158	-52	14	32	6
158	-97	17	-8	7
157	-156	16	-5	4
157	-124	18	10	2
158	-20	6	38	12
158	-28	-13	43	15
158	32	-7	16	7
158	81	-6	-23	-9
157	105	-2	16	-17
158	73	2	17	-2
157	14	8	26	0
158	12	2	78	-17
157	3	6	-51	-14
158	31	21	-101	2
157	2	17	-2	2
157	-2	11	-12	2
157	-6	17	-20	6
157	-22	14	8	15
157	-40	17	14	13
158	-48	7	4	10
158	37	-13	-7	-2
157	89	-21	-8	-2
158	56	5	-2	-1
157	43	55	9	4
157	50	54	19	12
157	-31	21	55	3
158	-109	-3	67	0
158	-46	-9	41	-6
158	-32	-12	38	-2
157	-164	25	26	6
157	-122	61	-3	5
157	-19	54	-13	6
158	-36	47	-19	11
157	-1	6	-16	11
158	13	9	-10	10
157	40	11	-19	15
158	77	-3	-30	1
157	42	70	-2	-4
158	9	74	22	-2
157	-35	22	14	-5
158	-15	14	10	0
158	62	-8	-2	-1
157	106	13	7	4
158	114	6	14	6
157	100	-28	21	-13
158	77	1	29	-18
157	61	6	14	2
158	56	13	14	6
158	38	13	8	4
157	-3	8	11	4
158	-22	17	17	7
158	-20	17	20	11
158	-21	14	22	8
158	14	17	10	4
158	-20	21	-6	-5
157	-36	11	15	2
157	-40	4	80	6
157	-120	6	43	-2
159	-70	32	-82	-7
158	84	41	-77	-12
158	107	61	15	-7
158	1	101	6	-5
158	3	64	7	-1
158	31	33	8	-4
158	-19	28	8	-9
158	-44	1	27	-1
158	-38	2	13	6
157	-18	-3	32	11
158	18	1	47	15
157	10	-4	52	4
158	5	-1	-8	-5
157	7	9	-42	-1
158	-48	13	6	9
158	-33	23	19	10
158	29	23	28	3
157	-7	37	14	0
158	-97	40	10	7
158	-83	44	33	-1
157	-61	49	-28	-15
157	15	25	-130	-2
159	80	1	-90	6
157	86	-37	9	-3
158	121	-109	54	-4
157	115	-46	29	2
158	91	18	-3	1
158	35	13	27	-3
157	37	112	37	2
157	13	57	21	7
157	5	15	4	10
158	-13	23	28	3
158	-65	-3	32	0
158	3	33	-9	5
157	56	49	-41	3
157	22	60	-28	3
157	-65	24	6	6
157	-105	41	-3	1
158	-64	35	8	-2
157	-5	23	18	-2
157	18	14	21	-5
157	60	-2	24	-1
158	84	1	16	4
158	104	-4	16	-1
158	90	8	6	3
158	8	11	10	4
157	-17	32	22	2
158	31	-1	19	-1
157	57	0	18	-7
158	-14	8	26	-8
157	-24	13	32	-9
158	-42	25	29	2
158	-92	25	17	9
158	-100	49	5	17
157	-49	29	-10	17
158	-1	22	3	3
157	-94	19	50	4
158	-147	19	8	4
158	-146	3	-73	8
158	-38	-27	-16	-4
157	-1	-11	20	-3
157	-5	19	0	2
157	50	6	25	-5
158	80	-33	8	-1
157	97	-18	4	-7
158	5	82	-2	-6
158	-5	74	23	-5
158	47	2	48	0
158	71	102	26	0
158	93	80	-12	4
158	99	3	-49	13
158	99	66	8	5
158	124	50	24	1
158	108	31	-15	-6
158	7	16	-66	1
158	-5	1	-38	7
158	-13	-5	47	-1
157	-60	-10	9	-4
157	-63	11	4	-15
158	-15	1	19	-5
158	-17	1	1	6
158	-2	-17	9	7
157	37	-30	13	7
159	27	-34	8	3
157	63	-63	-1	8
157	62	-52	-11	2
158	-1	18	-13	0
157	-46	60	8	0
158	-63	48	22	4
158	-53	90	12	3
158	-31	159	39	6
158	-33	92	106	12
158	-5	-6	103	7
157	14	7	5	-3
158	40	28	-88	-2
158	70	29	-56	1
157	12	5	17	-2
158	-4	8	24	2
158	-21	7	4	2
158	-113	-4	2	-5
158	-202	-9	9	-6
158	-87	-10	10	-5
158	130	22	2	-2
157	71	8	-5	6
158	3	1	13	5
158	-29	14	17	4
158	-36	13	8	-2
158	29	18	-3	2
157	24	20	0	7
158	70	26	26	-6
157	12	24	8	0
157	-75	16	1	6
157	-47	32	3	2
157	-23	65	16	-6
157	14	25	65	-10
158	65	-20	50	-1
158	85	-7	-58	9
158	116	6	-83	19
157	156	19	4	15
157	130	35	-3	4
157	66	54	-1	-6
158	37	59	14	-1
158	-3	48	5	-1
157	-134	-15	38	2
158	-165	-22	26	10
157	-63	46	29	4
157	-31	10	-4	4
158	3	12	-46	-4
157	57	14	-25	-1
158	95	-8	1	1
157	107	25	13	3
157	84	15	10	7
157	74	17	18	2
157	26	9	26	-1
158	-12	14	36	-8
158	-45	13	17	-1
157	-43	5	-5	4
157	-3	-10	8	0
158	-36	-5	27	-1
158	-43	9	52	9
158	-63	26	45	3
158	-55	89	-21	-3
157	-85	57	-31	8
158	-158	6	6	8
157	-142	16	0	-2
158	-113	10	4	5
158	72	1	-2	12
158	163	7	2	2
157	166	18	18	11
158	192	12	12	3
158	92	-7	2	4
157	51	10	-6	-2
158	-20	83	4	-25
158	-65	85	19	-4
157	-120	-10	43	-2
157	-151	18	20	1
158	-62	15	-22	5
158	-41	-20	-19	-9
157	14	21	15	0
158	69	-3	38	4
157	93	24	55	8
158	92	20	54	6
158	68	23	-33	9
158	47	32	-38	11
157	17	-2	6	4
157	14	1	-17	0
158	23	4	1	-10
157	25	19	29	-14
157	31	37	-4	-11
158	31	97	-56	-6
158	12	51	-23	0
157	4	-28	-15	3
157	-92	-34	-40	6
158	-143	-50	-9	2
157	-52	5	-10	-4
158	-12	5	13	1
158	9	19	29	3
158	91	125	29	-1
157	148	108	51	-1
158	155	75	78	-3
157	121	40	65	0
157	9	6	16	6
158	-176	31	21	0
157	-193	-16	24	4
158	-24	-17	24	6
158	-20	0	20	8
157	-28	-18	-3	8
158	48	11	-1	3
157	42	12	38	4
158	16	-1	45	4
157	8	12	-15	3
158	21	27	-64	0
158	5	11	-23	-3
157	52	-2	-7	-4
158	11	-5	-31	-2
157	-3	-23	2	-1
158	24	-4	-8	2
157	-16	15	6	0
158	-33	10	6	4
157	-97	36	1	8
158	-65	44	6	10
158	-29	-2	0	8
157	7	15	16	9
157	51	63	-15	2
158	53	64	-19	-6
158	67	31	-14	-7
157	60	18	6	0
158	29	54	37	7
157	0	48	45	6
157	-17	47	75	2
157	5	22	73	-4
157	38	18	20	-6
157	42	-10	-35	-5
157	58	-61	-18	-9
158	17	15	24	2
158	-14	44	20	7
157	1	0	-4	-2
158	-16	11	-32	7
157	9	32	-20	4
158	9	41	2	6
158	20	35	13	17
158	70	33	53	1
158	-23	36	74	-8
158	-59	10	26	7
158	51	-63	-71	3
158	-25	-26	-89	-13
157	-91	13	-7	-9
157	-32	1	1	-9
158	-28	52	8	-5
157	-95	26	19	-2
158	-86	69	5	1
158	14	23	11	7
158	36	-15	7	4
158	67	20	38	0
158	69	-5	58	6
157	105	18	49	4
157	72	13	-11	-2
158	-18	22	-71	3
158	-47	18	-35	-7
157	-57	14	-12	-1
157	-7	10	-13	9
157	-8	12	1	4
158	6	15	15	4
158	-9	13	47	2
157	-58	15	41	-2
157	-38	11	8	4
158	-26	15	2	3
157	-8	14	5	2
157	31	45	15	6
157	67	57	12	6
157	91	29	14	9
158	110	3	22	9
158	96	-2	35	1
158	47	5	33	-5
158	36	-10	4	-2
158	40	-10	32	2
158	13	33	83	-4
157	38	32	19	3
158	61	25	-45	14
157	36	34	8	-3
157	1	41	-24	-9
158	-69	87	-111	13
156	-25	40	-61	10
158	12	-37	-24	8
158	-80	-23	22	6
158	-96	-42	60	4
158	-67	-52	10	6
157	-43	-48	24	-2
158	52	22	31	-4
157	65	139	25	-5
158	31	106	39	-2
158	-64	55	24	2
158	-147	87	19	4
157	-150	74	9	19
158	-119	67	-15	-3
158	-75	48	-32	-24
157	-36	41	-19	-7
157	85	26	5	-10
157	126	-33	22	-9
157	150	-52	29	-3
157	171	-47	9	3
158	164	-7	2	9
157	80	8	12	4
157	-85	42	19	2
157	-103	71	22	7
157	-56	13	0	18
157	-6	-6	-53	4
157	24	15	-31	-10
157	48	33	8	2
157	65	57	9	8
157	51	90	27	3
158	46	91	3	4
158	4	35	22	7
158	-15	-40	82	13
157	25	-11	67	25
158	34	29	-31	18
158	-1	-82	-73	-8
158	-39	-129	9	-16
157	-46	-49	15	-9
157	-46	23	8	-12
158	-53	-3	41	-9
157	9	-21	25	-1
157	111	-10	-28	9
158	162	1	-47	-1
158	125	15	11	-5
157	71	6	12	3
157	-43	-6	17	-6
157	-250	-35	31	-5
157	-236	17	18	0
157	-37	80	15	3
157	-46	75	-12	7
158	-68	42	-7	6
158	-24	39	-2	10
157	-8	46	-5	7
158	78	50	-9	3
158	69	53	-3	-7
157	80	33	36	-11
158	69	32	103	-6
158	24	13	107	-1
158	-34	11	-43	10
158	-130	17	-156	4
158	-104	17	-24	6
157	-14	41	40	7
158	85	74	-5	-2
157	144	53	22	-4
158	169	64	-18	6
158	158	41	-19	7
158	49	0	1	-4
157	-87	13	15	-3
157	-150	-24	23	-1
157	-86	-22	26	-1
158	-40	-27	49	-1
158	-24	-13	38	8
157	38	3	37	15
158	96	44	22	14
157	124	99	32	14
158	92	47	14	-3
157	60	14	-33	-18
157	43	25	-23	-16
158	53	49	1	-5
157	35	57	6	-3
158	9	27	9	-4
158	-5	-5	17	-3
158	-6	-18	6	-1
158	50	-1	6	2
158	25	3	3	0
158	-9	-19	1	3
158	-38	-12	15	0
158	-33	1	35	7
158	-14	-11	29	10
157	-35	-3	-6	12
158	-24	2	12	7
157	-103	1	34	1
157	-152	14	-12	7
158	-171	29	-40	9
158	-101	38	-16	10
158	8	28	-9	7
158	-15	24	-3	-9
158	40	39	-6	-20
158	57	31	8	-9
157	52	-6	50	2
157	73	-4	33	5
158	48	18	-25	6
158	49	57	-34	2
157	20	58	1	-5
157	19	29	-14	-4
158	23	21	-1	-1
158	8	10	35	1
157	7	10	27	-4
158	-14	23	8	-8
158	-68	9	5	7
157	-134	-22	24	8
157	-84	-6	6	14
158	1	0	27	8
158	74	2	46	-4
158	160	11	41	3
158	173	39	52	4
158	129	39	83	1
157	27	39	34	-3
157	-96	64	-122	8
158	-127	11	-114	8
157	-45	-43	-55	11
157	39	-100	-32	6
158	99	11	5	-4
158	108	169	-11	0
158	69	68	18	3
157	41	60	15	2
157	4	99	23	-1
158	-28	46	45	2
158	20	52	31	2
157	124	52	21	-1
158	86	22	16	1
158	32	-67	45	2
157	-16	-81	44	2
157	-115	-50	9	0
158	-127	60	-23	-9
158	-23	82	-4	-10
157	46	19	3	-2
158	-23	76	-4	0
157	-88	30	10	7
157	-145	-20	13	2
157	-51	-56	19	6
157	11	-51	17	12
157	-13	-57	13	13
157	10	-27	13	11
157	-26	19	27	7
158	3	8	29	-6
157	44	49	14	-21
158	19	63	32	-16
157	-63	47	13	-13
157	-84	3	-15	-4
158	-4	21	-19	2
158	28	24	-22	9
157	73	13	0	12
158	91	20	-6	4
157	58	32	-19	8
158	35	5	-11	11
157	8	-18	0	9
158	-17	17	1	2
158	46	24	5	4
157	104	13	6	0
158	88	-12	3	-6
157	122	15	22	-2
158	120	25	28	5
157	72	33	40	16
157	1	42	83	0
159	5	34	70	-17
157	-47	55	-33	-4
157	-135	46	-65	8
157	-109	29	34	0
158	-66	30	18	6
157	-102	37	-4	6
157	-158	42	-16	3
157	-9	55	-56	-2
158	40	58	-20	-6
158	17	12	17	3
157	42	-26	74	-5
158	31	-92	28	-4
157	28	-102	-83	0
158	19	-47	-55	7
157	6	-48	32	11
158	-36	2	8	6
157	-13	28	5	-1
157	-30	97	19	-10
159	-62	159	8	-7
158	-25	77	24	-8
158	-28	60	13	-1
158	-6	142	18	2
158	65	72	1	5
157	102	17	8	11
157	43	24	24	4
157	34	-1	22	9
157	62	17	-7	15
158	38	-5	-13	6
158	38	7	14	-4
157	17	-3	-4	-8
157	22	3	17	-2
157	67	2	18	2
157	32	-3	16	-4
157	-73	9	24	-6
158	-121	-3	24	0
158	-68	2	20	9
158	-15	-2	-1	8
157	36	5	-5	9
158	84	13	-11	5
158	118	24	22	2
157	86	7	45	2
157	14	-9	14	2
157	-11	-1	-20	-1
157	-31	23	-12	2
157	16	22	23	11
158	36	1	45	11
158	46	2	35	4
157	58	9	-5	-14
157	29	7	8	-3
158	-21	13	0	4
158	-78	24	-19	-4
158	-18	26	0	4
158	1	30	0	-11
158	-22	23	25	-3
157	-29	19	18	-2
157	11	11	7	-5
157	-44	4	-27	3
157	-114	11	-36	4
158	-71	8	-4	4
158	-43	-2	-2	1
157	-93	-14	10	0
158	-142	22	14	0
158	-12	68	17	-1
158	25	50	14	-1
158	69	19	8	1
158	119	23	9	7
157	137	47	4	7
157	201	49	-9	-4
157	115	33	-9	7
158	0	51	1	8
158	-52	64	3	-1
157	-116	74	30	1
157	-138	75	61	-11
158	-48	55	99	-13
157	25	60	57	1
158	102	25	-62	15
157	139	-18	-65	7
158	130	-73	26	-1
157	96	-124	-31	11
158	32	-46	-87	15
157	-48	-32	1	6
157	-112	-54	4	5
157	-32	-11	10	0
157	-17	-1	16	-12
158	31	29	13	-5
157	150	86	20	-5
158	174	107	4	-1
158	107	22	28	1
157	5	13	24	-3
158	-130	45	15	-3
157	-286	16	16	4
158	-235	9	26	7
158	-50	37	24	-1
158	-5	107	4	-5
157	-38	50	-9	-15
158	1	-15	24	-7
157	40	-9	49	2
157	49	-8	42	2
157	12	1	39	8
158	-28	-14	-23	17
157	-33	-31	-33	19
158	-42	-2	21	14
157	-45	-9	17	13
158	-20	-47	-2	7
158	15	21	-10	4
157	61	50	4	-6
158	90	74	3	-4
157	107	67	-23	-1
158	122	44	12	-4
157	106	-4	15	-1
157	84	-50	-20	-1
157	57	130	-21	-13
157	61	61	-8	-4
158	48	-38	-2	11
157	13	75	-2	10
157	-93	41	6	8
158	-192	19	7	2
158	-146	-13	1	0
158	-98	-11	-1	-6
159	-12	28	6	-10
157	65	32	13	-5
157	144	15	24	9
157	181	16	43	9
158	99	44	57	-4
157	35	39	42	0
157	-32	18	-23	-2
157	-23	15	-9	-2
158	-18	34	29	10
157	-44	2	-8	18
157	-28	-8	-9	4
158	-38	8	10	-6
157	-7	15	5	3
158	26	46	15	-5
157	23	56	24	-6
158	14	18	33	4
157	-7	9	8	3
157	-43	14	0	8
158	-24	6	-1	2
158	-10	11	-14	2
157	-41	6	15	4
158	-31	14	6	2
157	52	12	10	3
158	118	13	14	6
157	40	7	48	7
157	-26	-1	126	-1
157	-98	0	84	-3
157	-113	8	-103	2
157	-56	26	-148	2
158	31	19	7	-10
157	85	28	-23	-4
158	48	38	-35	7
157	71	30	16	13
158	32	11	1	6
157	2	3	8	0
158	8	2	5	3
158	-21	-11	47	5
157	-24	-11	35	7
158	-36	7	-20	-5
158	-52	40	-32	-9
157	-78	39	12	-15
157	-72	-6	26	-5
157	-40	2	-15	-2
158	-69	12	-28	4
158	-39	23	-38	3
157	93	80	15	-2
157	176	66	16	-3
157	210	58	11	-1
158	159	61	29	3
158	159	56	21	6
158	132	57	59	14
157	-29	24	52	7
157	-54	-18	25	9
157	-44	-107	8	7
158	2	-79	2	-4
158	10	34	15	-3
157	-50	18	34	-5
158	-99	-1	38	-4
158	-55	13	28	2
157	2	24	19	2
157	-91	25	21	3
157	-71	15	15	3
158	20	25	-14	-3
158	65	21	-42	-1
158	-9	24	-27	4
158	-106	21	-1	5
158	-50	4	-3	10
158	20	20	17	11
158	38	38	16	8
157	64	48	-4	4
158	91	48	-17	-3
158	23	32	2	-13
157	-17	54	7	-7
158	-21	44	-3	-4
158	-29	3	11	-1
157	-13	-1	-14	8
157	0	18	-14	2
158	-38	-29	28	4
157	-12	-143	73	6
158	56	-45	61	0
157	54	180	-44	-9
158	64	141	-65	-1
158	58	15	9	-6
158	70	28	-6	-6
158	69	12	1	8
157	42	25	34	-3
157	18	17	15	-3
157	-4	-31	23	-6
157	21	-17	12	2
157	68	17	21	10
158	67	4	45	7
157	2	-22	49	-1
158	-31	27	-7	4
158	-119	104	-91	12
158	-149	107	-39	-5
157	-23	35	9	-7
158	14	70	-10	2
158	-95	90	12	10
158	-64	7	24	5
158	-27	-18	42	2
158	-49	-77	17	7
158	32	-68	-12	0
158	124	0	2	-7
157	107	-21	1	0
158	-1	-13	9	5
157	17	-14	26	0
158	18	11	5	3
158	-7	31	4	7
157	-6	16	13	-2
157	-9	29	-16	-10
158	6	17	-8	-8
158	7	28	18	-6
158	-1	24	24	7
158	-17	14	29	9
158	-9	15	20	4
157	-7	13	35	9
157	-15	19	42	4
157	-28	22	48	6
157	-30	33	30	4
158	-10	37	-26	-4
158	15	46	-26	-5
157	38	30	-7	5
158	32	26	-5	14
157	29	31	18	8
157	31	24	30	-5
158	12	21	1	-5
158	-3	10	-51	-3
157	-49	16	-80	-10
157	-119	26	-47	-4
158	-157	29	-9	5
158	-117	26	14	9
158	-6	9	41	7
159	80	0	30	10
158	171	2	38	12
157	245	-2	64	3
157	253	-2	34	0
157	221	28	-9	2
158	161	59	-7	-1
158	96	60	19	-5
157	45	17	15	-1
158	-45	-6	17	2
157	-244	7	3	2
158	-281	15	0	4
158	-138	31	1	3
158	-52	55	1	3
158	5	52	4	0
158	23	30	13	-5
158	31	17	45	3
157	58	8	2	11
157	43	-15	-90	-6
158	-22	-66	-56	-5
158	-19	-23	33	1
158	13	9	6	3
157	-31	1	16	5
157	17	51	30	2
157	53	47	31	0
157	14	32	60	-4
157	-8	9	24	0
157	-35	-26	-1	-4
157	-47	-10	24	-7
157	-1	79	46	-9
158	4	65	32	-6
157	-36	-3	9	0
157	5	2	-1	0
157	0	-60	24	4
158	-66	-91	6	6
158	-105	-77	-33	10
158	-53	-34	-11	7
157	-8	5	30	11
157	-37	70	53	12
158	15	151	27	6
157	111	208	-40	2
157	173	199	-63	0
158	185	102	-7	-8
158	146	77	-13	-11
158	173	41	-14	-4
158	185	33	-1	-1
158	37	42	-15	2
159	-86	55	7	5
157	-102	41	11	11
158	-142	-6	35	7
157	-144	-37	37	-3
157	-101	-118	19	-18
158	-145	-86	-9	-12
158	-103	-19	-12	7
158	-39	-19	15	16
158	7	-9	9	17
157	75	-34	15	9
157	97	-26	7	0
158	139	23	-9	3
157	105	22	-4	-4
158	71	-4	17	-4
157	66	-5	23	2
157	80	12	28	-4
158	22	13	-4	0
158	-31	24	-34	8
158	-40	24	17	4
158	-85	15	22	4
158	-30	20	-12	-1
158	-28	22	-12	0
158	-52	40	6	2
157	-39	48	18	9
157	-31	33	-1	5
158	-31	43	-10	-4
157	-39	37	-5	2
158	-21	15	12	0
158	-38	2	21	0
158	-70	-7	31	-1
158	-42	24	36	-5
157	8	67	33	-2
158	50	46	39	-4
157	122	39	47	1
157	152	55	51	-5
157	162	61	-25	-3
157	125	39	-80	11
157	27	-80	-3	19
158	-35	-35	-2	10
158	-40	20	-11	-7
158	-30	-13	28	-6
157	-58	29	3	-1
158	-52	-7	-13	3
158	-26	15	-31	-2
158	7	13	-15	-4
158	24	-10	5	2
157	66	15	34	-2
157	103	-15	38	2
157	59	-2	13	2
158	55	43	22	2
158	-27	86	-2	4
158	-161	15	-2	2
158	-117	6	13	-6
157	65	19	37	-1
158	97	9	16	6
157	28	42	-25	8
158	-40	55	-18	4
158	-135	15	18	1
157	-120	-28	21	2
157	-104	4	14	-1
158	-21	30	28	7
158	49	74	10	3
157	64	67	35	-2
157	112	45	66	-6
157	131	44	25	-8
158	155	39	-51	3
158	93	32	-16	10
158	13	9	10	6
158	-13	-6	-31	8
158	-66	-10	-14	3
157	-31	-3	-6	0
158	14	-4	12	4
157	-30	5	8	4
157	-104	8	-4	0
158	-196	26	0	2
157	-178	28	6	7
158	-93	20	31	9
157	-16	24	23	8
158	68	14	14	2
158	132	22	23	4
157	190	32	23	13
158	150	31	28	13
158	82	16	38	-2
157	81	21	27	-8
158	100	15	-18	-14
157	59	14	-51	-7
157	22	14	4	0
157	52	9	24	-5
158	-16	4	-17	5
158	-23	-23	-1	10
158	47	-14	25	5
157	-58	16	29	-2
158	-135	62	-39	7
157	-137	102	-74	0
157	-56	123	-13	-18
158	11	67	29	-11
157	-48	-27	52	-6
157	-58	-100	34	0
157	-102	-123	36	-2
158	-83	-43	83	-3
158	-10	-44	62	-5
157	17	-25	-55	-5
158	43	108	-109	1
158	55	86	13	-5
158	46	23	17	-1
157	52	50	1	7
159	126	59	20	9
159	132	63	-23	6
157	101	21	-3	5
158	89	17	4	3
157	46	34	47	4
158	-3	15	43	15
157	-20	6	-11	22
158	-16	-21	-31	4
158	-22	2	-13	-11
157	-11	8	17	-7
158	-62	-12	2	-5
158	-115	0	14	-1
158	-77	25	21	0
158	-114	42	25	1
157	-109	47	29	-4
157	32	66	19	2
158	113	55	13	9
158	107	25	11	4
158	75	34	-8	2
157	30	12	-26	-4
158	24	5	-6	-1
158	47	13	-3	6
157	31	1	5	10
157	52	11	9	8
157	90	26	-3	2
157	69	36	-2	-5
158	6	13	14	-3
158	-56	4	22	-6
157	-194	14	19	3
157	-277	15	21	5
158	-129	33	5	11
158	-5	41	4	12
157	-3	27	51	0
157	-13	21	77	-10
157	25	7	20	-14
157	11	0	-66	2
157	30	-24	-42	8
158	66	-13	28	2
157	93	6	6	4
157	158	-11	2	-4
158	139	15	-8	-3
158	121	13	-19	7
158	71	13	-5	8
158	36	-1	-4	3
157	21	-3	8	-2
158	-6	56	-1	-3
158	16	72	21	-6
158	-13	55	24	1
157	-17	11	16	5
157	-37	-8	20	10
157	-86	-6	22	8
157	-70	38	21	2
157	-38	58	3	0
157	-97	15	20	-14
158	-126	24	26	-18
157	-70	17	29	-3
158	-77	1	24	2
157	28	18	9	4
158	130	40	32	7
157	156	25	63	-2
158	188	22	52	7
158	127	87	-62	-2
158	43	112	-155	-4
157	28	16	-27	2
157	9	-61	51	7
157	-85	-12	-8	6
158	-140	-49	0	11
158	-46	-112	-42	3
158	-5	-143	-25	-7
157	-28	-7	-10	18
157	-45	145	-3	2
158	-80	50	20	-6
158	-21	59	-3	2
158	13	128	29	-2
158	58	94	25	4
157	94	3	37	3
158	41	7	10	7
158	32	24	1	4
158	-20	9	34	-1
158	-97	41	8	-8
158	-110	47	10	1
159	-17	20	16	14
158	25	8	16	12
158	-14	32	21	7
157	-40	12	31	2
157	-49	14	32	7
158	28	7	19	0
157	54	-19	5	-2
158	98	-49	-19	-3
158	133	9	-10	4
158	80	58	-3	6
157	31	15	18	3
158	56	40	52	8
158	30	14	56	-3
157	-1	15	2	-7
157	1	22	-73	-4
158	12	13	-30	4
157	89	5	25	7
158	61	-14	5	10
157	2	6	13	-4
158	-91	38	1	-6
157	-112	54	-7	-6
157	-37	15	7	-9
158	-37	-7	18	-2
158	3	-12	16	1
