File Name: not saved
Channel 3: 'EKG', 22100 values, raw ADC, no filters.
Channel 4: 'FCR_EMG', 22100 values, raw ADC, no filters.
Channel 5: 'FCU_EMG', 22100 values, raw ADC, no filters.
Channel 7: 'ECU_EMG', 22100 values, raw ADC, no filters.
Channel 8: 'ECR_EMG', 22100 values, raw ADC, no filters.

158	-48	22	22	-4
157	-11	13	-5	-1
158	-4	13	-10	-2
157	11	12	-18	4
157	30	11	-1	4
158	46	18	-11	4
157	49	22	1	4
158	27	22	1	-1
158	28	24	2	-4
158	22	27	17	-3
157	1	25	19	0
157	7	24	27	9
157	5	21	32	14
157	3	10	37	4
157	4	10	28	-4
157	-6	12	19	-8
157	-18	8	12	-7
157	-26	8	-20	-4
158	1	7	-44	0
157	16	6	25	1
158	-3	8	45	3
158	-5	1	-8	0
158	-21	1	11	4
158	-18	13	13	4
157	-2	21	17	-2
157	-2	25	11	5
157	7	27	-19	-4
157	7	28	-41	-8
158	-4	19	-27	-7
157	-13	11	-13	-1
157	-12	17	-28	-1
158	-8	0	-2	-3
158	-3	-8	9	4
159	1	5	24	0
158	18	31	38	-2
158	33	43	24	-3
158	40	29	21	-2
158	42	28	39	0
158	40	24	48	7
158	34	21	25	11
157	15	19	17	18
157	-3	17	39	19
158	-3	19	36	9
157	8	17	40	3
158	15	9	56	-3
158	13	9	41	0
157	9	13	-5	3
157	-9	9	-46	2
157	-31	12	-62	7
157	-39	13	-37	5
157	-18	15	32	1
157	-9	22	20	0
157	-5	23	-27	-2
157	12	34	-50	-3
158	20	39	-38	-5
158	28	36	19	-1
157	27	43	2	-3
157	26	38	20	-4
158	22	29	41	2
158	20	19	38	-3
157	19	14	-28	7
158	18	21	-81	12
158	16	14	2	-1
158	6	11	7	3
157	5	14	-1	-2
158	16	15	5	-6
158	21	10	-5	0
158	7	13	8	-3
158	0	16	16	2
157	0	9	29	4
158	-3	8	15	-1
158	-7	6	17	-1
157	-27	8	17	8
157	-17	11	12	7
157	-7	14	20	-6
158	-24	25	36	-11
157	-56	27	33	-3
158	-78	31	11	3
158	-34	28	2	4
158	-4	28	3	-2
157	15	28	22	-4
158	27	17	18	6
158	30	17	9	3
157	36	17	-16	-4
157	42	15	-20	-4
157	69	17	-3	3
157	64	5	-6	4
158	33	-1	8	2
158	-4	5	5	8
157	-8	13	-5	7
158	-4	17	0	10
158	-14	17	5	5
157	-9	18	6	1
157	-14	21	10	-1
158	-5	21	32	-1
157	0	24	29	8
157	1	19	18	7
157	12	22	13	-2
158	19	23	40	-8
158	15	21	62	-10
158	7	21	41	-13
157	4	21	30	-7
158	-1	20	10	8
157	-8	16	-14	7
158	-12	15	-29	9
157	-9	14	-14	7
158	-3	12	-4	11
157	6	15	-22	9
157	10	21	-12	2
157	10	21	-8	2
157	6	16	-6	-3
158	-6	10	2	4
158	-20	-8	4	4
157	-11	-17	8	7
157	5	-1	6	10
158	8	19	8	6
157	15	31	-10	6
158	25	37	-40	4
159	42	34	-22	2
157	60	32	0	3
157	65	30	-10	-1
157	50	39	21	-10
157	9	46	61	-12
159	-27	45	33	-13
157	-28	33	-32	2
157	-19	24	-5	-1
157	-30	19	33	-5
158	-3	15	13	-4
157	19	17	27	-9
158	12	18	24	-6
158	12	22	26	-2
158	-4	21	17	1
158	-1	19	9	4
157	14	9	30	14
157	5	-3	60	16
159	0	-7	73	0
157	-13	-3	-7	-5
157	-16	12	-89	-3
158	-9	17	-39	-5
158	-14	15	4	-3
158	2	22	-23	0
158	33	22	-4	6
158	39	23	-7	9
157	15	26	8	2
157	-27	13	12	10
158	-53	-2	-7	13
158	-40	5	0	4
158	-45	19	9	3
157	-44	17	57	3
158	5	26	57	3
158	36	39	-23	2
157	60	34	-19	-6
158	69	28	28	-16
158	66	31	10	-10
158	53	35	21	-1
158	13	30	21	0
157	-9	18	42	5
158	6	14	49	11
157	1	14	31	19
157	7	11	18	24
158	10	12	-19	12
158	5	14	-13	-2
157	1	14	-44	-9
157	-9	9	-35	-12
158	32	11	-2	-2
158	41	13	-15	-1
158	21	9	3	-4
158	10	13	1	-3
158	-15	11	6	-5
158	-8	16	13	2
157	-5	17	17	2
158	-7	16	23	2
157	-12	15	49	3
157	-11	14	52	4
158	-4	16	15	9
158	-6	17	15	5
158	-6	17	15	7
158	0	17	19	7
157	0	13	30	0
158	-21	18	20	-7
157	-36	21	-8	-4
158	-27	16	1	-6
157	-15	18	14	-13
157	0	15	9	-6
157	12	15	8	4
157	21	21	-15	7
158	32	23	-23	9
157	49	21	-18	11
158	46	18	-12	2
158	37	26	-24	-8
158	37	28	-19	-9
158	36	22	-6	-6
157	21	21	-2	-3
157	-11	17	13	3
157	-22	16	29	3
157	-22	20	36	-1
158	-31	22	5	-8
157	-33	21	-41	1
157	-10	17	-9	6
157	24	17	21	9
157	46	25	14	4
157	38	28	33	4
157	19	24	43	4
158	18	15	52	1
157	9	9	0	7
158	-5	7	-68	6
158	-29	7	-52	10
158	-31	4	-19	-3
157	-17	11	-19	-5
158	-56	31	5	1
158	-50	33	23	4
157	-6	19	14	4
157	3	3	16	10
158	21	-12	-6	10
158	31	-12	21	-9
157	44	17	54	-3
157	51	43	64	-3
157	37	41	35	-3
158	35	30	1	0
158	15	34	5	0
158	0	41	-15	0
158	7	42	0	-2
157	11	35	1	0
157	10	29	-15	-3
157	23	22	8	0
157	23	16	14	3
157	8	19	22	3
157	3	14	26	10
157	2	5	25	8
159	-23	-4	13	0
158	-35	-1	-28	-10
157	-36	9	-45	-13
158	-44	13	-30	5
158	-28	13	-26	10
157	-6	13	-8	8
158	18	22	42	6
158	40	18	67	-1
157	42	17	46	0
157	22	16	36	-9
157	11	16	71	-16
157	27	13	33	10
158	14	19	-52	21
158	5	31	3	0
157	9	35	35	0
157	-6	36	-5	-3
158	-9	32	0	-10
158	-8	27	-12	-6
158	11	24	-1	-2
158	26	26	-12	3
157	11	24	-11	6
157	1	19	12	11
158	9	12	26	10
158	9	17	22	7
157	7	19	4	7
158	9	19	9	6
157	-4	15	1	8
158	-16	10	6	8
158	-33	14	13	8
158	-31	8	20	11
158	-14	5	20	10
157	-8	1	9	4
158	8	2	8	2
158	17	8	5	-1
158	24	14	6	-6
157	30	21	-3	-6
158	30	22	-2	-1
157	37	22	5	0
158	45	15	18	5
157	31	18	51	7
157	14	15	81	3
158	9	10	29	1
158	1	19	-77	3
157	4	25	-75	-3
157	-3	19	-1	0
157	-5	17	20	1
157	-6	17	2	9
157	-10	16	-38	10
157	-10	19	-33	-17
157	-14	15	-12	-23
158	-2	17	-13	-16
157	-1	16	6	-12
158	-4	11	7	-1
157	-6	11	6	-1
158	-28	12	13	1
157	-54	15	10	2
157	-51	15	5	-4
158	-8	19	-5	-3
157	7	24	-6	6
158	4	30	-8	12
157	16	36	3	8
157	33	45	2	1
158	44	42	-6	-4
157	52	28	27	-2
157	78	8	43	-4
157	55	-5	42	-4
157	18	-3	59	4
158	16	14	79	11
157	8	28	55	19
158	-7	21	39	12
158	-4	21	21	0
158	0	26	-11	-1
158	10	23	-10	-10
158	26	17	-6	-2
158	31	16	5	7
157	23	19	5	0
157	7	13	3	5
158	-7	10	9	4
157	-26	10	21	2
158	-42	13	38	-1
157	-25	12	14	-2
158	-7	16	-51	7
157	-12	22	-43	4
158	-11	17	9	-1
157	-5	22	-25	3
157	0	20	-18	0
158	2	18	-11	-2
157	3	21	-16	4
158	5	19	-5	5
157	10	19	-9	7
158	26	19	22	-5
158	36	23	7	-3
157	26	24	13	1
158	3	22	41	4
157	-10	20	37	8
157	-23	17	21	3
157	-33	17	-10	5
157	-44	17	-3	2
157	-22	17	20	-8
158	13	11	10	-2
157	23	3	18	-7
158	31	5	48	-10
158	29	11	-13	1
157	20	18	-72	12
158	19	21	-39	18
157	9	15	10	11
157	11	18	19	8
157	17	26	31	8
158	16	29	43	-8
158	15	28	42	-12
157	8	19	39	-3
157	1	18	18	-2
157	-9	18	-2	-1
157	-15	17	-7	3
158	-16	22	0	13
157	-10	22	-1	10
158	4	19	10	2
157	11	15	19	-2
158	11	14	15	-12
158	4	15	10	-14
157	14	15	-6	-6
157	37	15	-13	2
157	38	17	8	0
157	35	11	7	13
157	25	9	2	7
157	13	17	13	-9
157	0	19	7	-12
157	-22	19	2	-11
158	-40	26	-5	-2
157	-50	31	3	3
158	-68	31	21	0
158	-51	32	26	-1
157	-1	31	15	3
158	20	32	1	6
158	56	24	6	11
158	75	19	15	9
158	92	12	-2	4
158	94	11	-8	-1
157	58	13	21	2
158	32	14	20	9
158	-8	14	15	10
158	-25	13	0	14
158	-25	15	-3	11
158	-35	17	3	1
157	-26	15	-9	2
158	-11	18	-12	-4
158	-5	17	-2	-7
158	6	15	26	-12
158	15	19	27	-7
158	19	18	13	2
157	18	18	-7	2
157	18	19	-4	0
158	19	16	32	0
158	4	15	2	-6
159	-5	15	-3	-7
158	-8	15	17	2
157	-9	17	15	3
157	-4	18	18	11
157	-18	18	5	9
157	-3	19	6	4
158	18	15	0	7
158	-3	12	10	-2
157	-17	21	34	-4
157	-38	27	49	-9
157	-43	23	26	-8
158	-24	24	-54	15
157	-30	17	-71	13
157	-7	13	-11	4
157	23	16	0	9
157	20	15	-3	2
157	17	15	-12	1
158	9	19	-30	7
157	-1	18	6	1
157	-23	14	15	2
157	-34	14	27	5
158	7	11	74	8
158	31	17	94	5
158	27	26	26	2
157	32	25	-56	2
158	29	13	-14	-2
158	30	-6	-7	-1
158	26	-10	-20	-7
158	-8	14	2	-1
158	-32	38	-30	-2
158	-14	32	-34	-3
158	-41	23	-17	3
158	-37	27	30	-3
158	33	30	55	-1
158	46	21	63	-2
159	75	18	63	1
158	85	14	32	-1
158	106	1	27	-4
157	105	-10	6	2
157	44	0	0	6
158	29	14	5	4
157	1	18	12	3
157	-33	26	18	9
157	-25	35	8	15
158	7	40	5	-3
158	11	45	-7	-9
158	-12	50	-25	-4
158	-19	48	-14	-6
157	-20	36	-7	2
158	-24	26	0	0
157	-23	22	23	-1
158	-20	13	21	4
158	-11	12	12	-1
158	4	15	1	-11
158	-1	13	5	-13
158	-5	13	10	-7
158	-7	11	4	-5
157	-16	12	4	3
158	-26	12	-14	7
157	-35	10	1	6
158	-22	12	8	9
158	-4	12	2	9
158	-3	11	0	3
158	0	13	-16	-1
158	-3	14	0	-5
157	-8	13	27	1
158	-15	15	66	3
157	-5	14	73	5
157	5	9	3	20
158	19	11	-25	15
158	37	14	14	-4
158	44	13	-26	3
157	43	17	-36	4
157	40	19	-30	6
158	26	23	-50	9
157	-1	21	-11	1
157	-22	23	2	8
157	-38	23	19	-2
158	-44	19	13	2
158	-37	10	13	8
157	-10	14	26	2
158	14	21	22	-5
157	26	18	24	-5
158	44	25	17	3
157	48	27	24	2
157	48	30	12	2
157	40	25	13	-10
157	26	24	9	-9
158	21	25	5	-5
157	13	20	13	-6
158	4	17	12	6
157	1	19	29	12
157	0	22	48	5
158	-4	10	65	-1
157	-6	2	7	10
157	-2	8	-73	12
158	3	16	-10	-5
158	1	14	42	-6
158	4	17	-4	-6
158	5	22	3	-5
158	2	22	-1	-3
157	3	17	-1	-13
157	-4	16	-6	4
158	-7	19	-17	6
157	-5	16	3	6
158	-16	15	0	17
157	-25	19	-7	12
159	-29	17	-22	7
158	-28	13	-20	-1
158	-15	15	22	4
157	4	13	82	-1
158	16	16	75	-7
158	34	14	12	3
157	53	19	9	2
157	64	22	19	2
158	66	22	13	-5
158	44	27	13	-11
158	11	21	-1	-4
157	1	19	-3	-4
158	-3	17	0	-8
158	-18	18	-26	3
157	-20	18	2	4
158	-11	14	32	4
158	-2	13	12	-1
157	10	15	19	-2
158	22	22	17	2
157	21	24	0	3
158	18	30	5	8
158	20	35	22	9
158	7	24	36	7
158	-5	22	-6	6
158	-6	26	-52	-4
158	-14	16	-47	0
158	-9	15	-19	13
158	-7	17	20	-2
158	-8	16	25	-9
157	-7	21	20	-9
157	-7	14	38	11
157	2	11	20	10
158	3	13	2	-8
158	7	14	-12	-5
157	9	14	1	-11
158	4	17	-14	-4
157	2	15	-54	-3
158	-2	17	-27	-1
158	-9	19	39	0
157	-8	20	45	6
158	-3	21	1	11
158	1	15	8	8
158	7	17	4	9
157	11	19	5	6
157	9	17	14	6
157	9	16	10	10
157	14	16	18	14
158	15	17	-2	2
158	10	19	-6	-4
158	10	20	-1	1
157	5	21	15	-3
158	5	22	22	0
158	8	15	8	6
157	6	13	-4	9
157	5	19	-11	9
157	4	14	18	10
158	4	13	4	3
157	5	16	4	6
157	7	19	43	7
157	9	24	5	7
157	8	21	11	-1
157	5	15	59	-17
158	3	10	116	-18
157	0	14	88	-15
157	3	18	-35	-8
158	6	19	-18	-3
158	7	26	-26	4
157	8	22	8	7
157	1	11	39	11
158	5	14	-17	13
158	11	19	-19	16
157	11	20	-55	14
158	8	18	-27	1
158	7	17	-33	0
158	5	17	-42	-4
158	6	18	-31	3
157	9	24	-28	16
159	11	26	17	19
157	9	18	31	13
158	4	15	61	6
157	2	15	112	7
158	4	11	89	3
158	4	11	1	0
157	0	16	45	-4
158	-5	23	60	-13
158	-2	19	-57	-36
157	4	18	-62	-51
157	10	21	-75	-77
157	9	24	-47	-90
158	7	25	63	-74
158	7	20	58	-45
158	7	21	34	-4
157	7	24	-7	16
159	5	16	-8	34
157	0	13	9	48
157	4	14	-7	35
158	0	10	15	36
158	0	15	43	44
157	1	14	30	40
158	6	17	-32	25
157	2	19	-49	1
157	5	21	-34	-9
157	4	20	25	-9
157	4	22	18	4
157	3	27	-8	19
157	5	28	14	14
157	11	24	71	10
158	10	14	70	6
157	11	14	-3	2
158	7	15	23	19
157	-4	16	-11	29
158	-6	14	-91	20
158	-5	8	-81	13
158	-4	9	3	34
158	-3	9	8	24
157	0	15	-18	-4
158	-11	17	95	-13
157	-11	9	60	-45
158	11	19	-69	-45
157	21	25	-71	-39
158	19	17	-33	-36
157	22	20	-31	-28
157	22	21	-20	-19
157	29	18	22	14
158	34	17	42	27
157	26	26	17	36
158	19	28	18	39
157	9	22	57	24
157	3	18	-9	18
157	4	22	-6	-1
159	-3	18	56	-3
157	1	18	69	4
158	2	18	40	14
158	1	19	-27	21
158	0	20	43	22
157	-4	11	71	26
158	-2	12	33	10
158	-6	13	42	4
157	0	17	61	2
157	-2	17	69	-8
157	-2	18	17	-22
157	3	22	-1	-27
157	4	19	-51	-24
158	3	22	-102	-29
158	3	22	13	-21
157	3	19	62	-10
157	1	11	-35	-6
158	1	15	14	-3
157	3	23	19	-5
157	1	21	-39	-5
157	-1	16	-48	4
157	0	17	-51	36
157	1	21	6	60
157	1	18	-34	78
158	0	18	-62	87
157	2	17	-24	68
157	3	11	-87	41
158	3	12	-130	9
157	3	18	-22	-28
157	13	24	49	-72
158	15	24	88	-114
157	9	21	43	-139
157	7	15	35	-103
158	4	14	127	-51
157	4	11	61	-34
158	4	13	26	-14
157	3	17	37	-6
157	1	12	159	6
158	3	18	236	5
157	3	19	83	0
157	3	28	29	25
158	5	28	6	42
157	9	21	-57	55
157	5	26	-84	60
157	7	28	-40	59
158	7	18	14	55
158	3	13	-12	51
157	-3	11	-86	36
158	-14	9	-113	13
158	-23	13	-15	-4
158	-25	10	-12	-26
157	-10	14	-16	-41
158	12	19	23	-46
157	17	21	-34	-49
158	29	23	-72	-45
158	33	19	-45	-17
158	33	21	-22	10
158	36	28	-31	14
158	38	29	48	29
157	26	24	43	39
158	15	24	10	35
158	8	22	69	32
158	3	19	122	26
158	2	22	208	13
157	-4	19	59	-2
158	-4	17	-32	-15
157	-5	15	111	-20
157	-3	18	-77	-18
157	0	15	-57	-17
157	0	20	34	-13
158	-1	20	-116	-5
158	-4	14	-71	-11
158	-11	13	-66	2
157	-21	7	37	21
158	-20	9	108	-2
157	-13	15	41	-13
158	-9	21	37	-14
158	-7	19	9	-5
159	0	14	11	0
158	7	10	20	0
157	20	11	9	-2
158	25	13	-6	0
157	22	22	-24	8
157	26	25	-28	4
157	32	23	0	7
158	24	26	4	11
157	17	23	-6	7
158	16	18	5	10
157	20	18	13	13
157	22	24	28	7
157	8	19	18	11
157	0	17	-5	23
158	-2	21	-3	7
157	-3	20	8	-6
158	-1	17	-4	-5
157	-2	13	-37	6
157	4	19	-64	10
158	0	18	-15	2
158	1	14	-3	3
157	1	18	-10	3
158	5	16	3	-2
158	8	19	-2	-1
158	3	21	22	7
158	5	21	-8	6
158	1	15	-26	6
158	1	17	-23	-4
157	2	22	-15	-1
158	0	22	27	6
157	-1	13	55	1
157	-5	6	87	6
158	-1	5	112	10
158	1	13	92	8
158	-1	21	36	16
157	-8	23	34	24
157	-11	19	37	19
158	-6	17	-20	11
157	-5	15	-71	-1
158	2	16	-78	-16
158	11	22	-50	-28
158	14	21	-31	-38
158	25	22	44	-46
157	22	24	31	-43
158	-5	29	14	-31
158	-9	23	67	-4
158	8	19	52	19
157	9	17	117	17
157	11	13	25	14
157	17	24	-101	6
158	27	24	-122	-6
158	28	22	-112	-12
157	18	21	-96	-15
158	4	12	-109	-11
158	5	9	20	6
157	9	15	135	9
158	2	14	140	-1
157	-3	10	55	10
157	-3	15	-8	19
158	-6	15	-29	19
158	-6	19	-103	4
158	3	15	-144	-11
158	9	19	-20	-17
158	6	22	206	-22
157	5	19	264	-14
158	10	28	44	-24
157	7	27	26	-16
158	5	23	94	6
158	9	23	-44	2
158	7	18	30	10
157	3	13	26	15
158	-2	15	74	20
158	2	17	144	23
158	3	16	-4	18
157	3	15	24	19
157	3	14	-4	17
159	1	19	-85	16
157	0	26	-67	10
157	2	24	9	-8
158	2	22	20	-2
157	1	25	-44	8
158	-4	19	-18	13
157	-8	16	1	14
157	-6	12	7	13
158	8	14	-40	22
158	11	12	-56	19
157	-3	11	8	12
157	-2	10	9	4
157	16	16	29	-6
157	13	24	-2	-13
158	6	15	-34	-1
157	15	19	-18	12
158	23	27	52	14
158	14	18	148	11
158	1	19	29	9
157	12	23	-67	-4
158	23	21	-84	-15
157	21	15	-109	-20
159	20	17	-108	-22
157	21	17	-69	-7
157	28	19	5	3
158	17	16	33	-1
157	3	17	54	-4
157	-2	26	37	4
158	-4	25	16	10
157	-14	18	-36	13
157	-17	14	-50	15
157	-8	17	-60	14
157	-6	18	-74	11
157	0	16	10	10
157	5	16	33	21
158	11	15	22	24
157	14	11	5	19
157	11	17	1	7
157	7	23	38	1
157	1	19	82	-10
158	-1	14	84	-29
157	3	10	72	-57
158	3	8	130	-69
158	-1	15	109	-53
158	-2	22	116	-41
158	-4	17	-7	-22
158	-8	18	-130	-6
157	-11	18	-55	0
157	-8	16	-38	5
157	3	20	108	7
157	7	21	239	3
157	7	24	97	14
157	4	24	-90	20
158	1	21	-31	16
158	5	20	12	23
158	11	18	-16	24
157	11	17	8	31
158	6	20	-2	44
157	9	24	-22	39
158	9	23	-56	25
158	2	17	47	8
157	-1	9	86	-13
157	0	15	-10	-9
157	5	26	-67	3
157	4	14	-58	-3
157	5	13	3	-2
158	9	19	-8	-8
157	0	22	-9	-20
158	-13	21	-12	-23
157	-18	17	-15	-23
158	-16	18	4	-24
157	-10	10	24	-27
158	7	14	-3	-13
158	20	14	-26	-4
157	24	13	36	-2
157	30	18	35	6
158	37	17	-1	5
158	41	24	-13	9
158	44	23	4	-1
158	32	22	40	-6
158	14	27	17	17
158	1	24	-7	20
157	-21	11	43	18
158	-19	15	55	28
157	-3	22	-6	25
158	-4	18	-29	26
158	6	18	-18	35
157	10	25	-118	24
158	17	31	-178	7
159	20	17	-43	-10
158	8	14	39	-24
157	2	18	81	-25
157	4	22	50	-8
158	-6	13	2	-18
157	-17	11	47	-18
157	-1	21	23	-8
158	4	18	-13	-12
158	-5	12	-16	11
158	-4	8	-2	18
158	12	14	-8	23
158	20	14	-11	24
157	12	19	32	9
158	2	25	46	-2
157	-2	17	50	-2
157	3	18	34	0
157	2	30	8	-1
158	0	28	30	-1
157	-3	19	39	-5
159	-3	18	66	-6
157	-1	13	74	-6
158	3	15	63	-6
158	4	17	33	-6
157	10	23	-41	3
158	8	15	-38	-6
157	-3	11	-3	0
157	-1	15	-29	10
158	0	14	-43	14
157	3	17	-60	14
158	5	17	-4	6
158	2	22	125	-1
157	2	24	154	-12
157	8	29	2	-16
157	16	25	-54	-13
157	16	21	98	-9
157	10	17	103	-8
157	7	17	-7	4
158	8	17	-9	14
158	5	12	0	14
158	3	13	0	17
157	-9	8	39	17
157	-25	4	-37	19
157	-22	9	-63	27
158	-9	21	-1	29
158	-3	23	47	20
157	5	10	-25	16
157	11	9	-152	11
158	29	21	-140	7
157	43	28	-43	7
159	41	30	8	-11
158	32	25	22	-44
158	30	18	146	-65
158	26	24	107	-70
158	17	28	-67	-65
157	10	25	-28	-36
157	1	22	43	-21
157	-3	14	-47	-16
158	-4	17	-126	-13
158	-3	19	-119	-6
157	-4	19	-148	15
158	-3	23	-46	27
158	-4	13	142	46
157	-7	7	83	53
158	-3	13	28	42
158	0	11	63	38
158	-1	11	106	13
158	-2	17	111	9
158	-4	20	101	20
158	-11	21	65	14
157	-18	21	0	4
158	-6	18	41	-17
158	3	19	24	-29
157	8	19	27	-20
158	10	13	48	-15
158	16	15	-16	-19
157	23	24	-37	11
157	22	23	-8	9
158	15	18	-11	4
157	12	15	-30	7
157	13	15	-40	-4
157	11	19	-73	13
158	9	16	-17	5
158	5	16	34	13
157	11	18	46	14
157	3	15	18	14
157	-5	21	-23	16
157	-4	21	1	11
158	1	19	31	15
158	1	21	22	21
157	1	19	-24	36
158	4	15	8	29
158	4	17	37	22
158	3	12	-11	17
158	1	12	46	11
158	4	22	82	2
158	7	20	-142	-24
157	7	24	-168	-30
157	8	24	3	-29
158	3	15	139	-37
157	3	16	142	-44
158	2	14	42	-31
158	2	17	161	-13
157	4	24	87	-6
157	6	21	12	3
158	8	14	11	14
157	6	10	-66	10
158	5	11	-43	4
158	4	15	-52	7
157	3	18	-130	3
158	4	26	-194	9
158	5	25	-52	9
158	-3	17	-39	10
159	1	21	-70	20
158	4	21	49	16
157	0	17	60	11
157	5	19	70	0
158	16	23	51	4
158	11	18	85	-1
157	3	21	29	-25
158	3	21	-7	-36
157	2	10	111	-27
158	1	11	138	-30
158	4	17	111	-26
158	1	25	-7	-4
157	-3	22	11	-1
158	-3	19	14	6
157	1	12	-47	2
157	1	11	-78	12
157	4	17	-171	19
157	15	21	-116	26
157	28	29	-33	39
158	24	27	-10	31
157	12	27	28	19
158	13	20	120	8
158	14	16	180	-14
157	7	15	118	-45
158	2	8	41	-57
157	-3	8	-34	-47
157	-9	20	-2	-14
158	-19	13	40	0
158	-7	20	-48	0
158	4	19	-43	27
157	5	15	-74	23
157	9	21	-55	13
157	13	13	4	18
157	25	21	-87	21
158	24	19	-102	25
158	14	21	-34	27
157	11	19	-18	29
157	7	16	68	36
158	3	11	198	35
157	3	19	95	22
157	8	25	-9	15
158	4	15	17	17
157	3	19	13	19
158	1	21	5	9
158	4	19	30	-10
157	0	21	43	-14
158	1	21	49	-32
157	-1	15	19	-54
159	-1	19	5	-55
157	1	22	5	-61
158	1	17	62	-58
157	4	19	109	-39
158	3	20	-51	-26
158	3	20	-62	-2
157	5	21	22	7
158	1	17	-18	15
157	7	15	-24	23
158	2	15	-19	22
158	2	13	-13	25
158	0	15	-4	24
157	0	14	0	29
158	3	18	-30	17
158	1	17	-43	13
158	2	19	0	14
158	5	25	12	18
157	10	20	10	35
158	8	16	24	22
158	3	16	58	24
157	3	17	67	29
157	0	16	18	34
158	1	16	-35	53
158	3	21	-87	52
157	4	19	-12	32
158	3	15	21	-7
158	8	22	-67	-57
157	9	17	-49	-111
158	7	14	-13	-118
158	4	17	11	-75
157	7	21	43	-42
157	11	30	93	-22
157	11	21	69	-5
157	9	12	43	0
158	8	11	43	-5
157	4	11	46	4
158	8	19	60	24
158	9	21	34	32
158	5	14	-33	36
158	2	13	-1	28
158	1	13	134	31
158	3	19	107	26
157	8	27	54	-1
158	7	21	21	-25
158	3	17	-55	-33
157	1	15	-117	-5
157	10	17	-101	14
158	15	21	-36	17
157	9	28	-70	16
157	5	33	-83	8
157	2	26	-97	-10
158	0	19	-65	-18
157	7	19	23	0
157	4	19	28	2
157	-1	13	40	7
157	0	11	62	11
158	3	18	36	4
157	3	13	-31	4
158	4	14	-32	4
157	4	19	66	12
158	7	18	141	10
157	16	23	18	10
157	15	23	-155	15
158	8	20	-44	17
158	6	21	50	16
157	-8	17	111	2
158	-15	19	126	-4
158	-9	18	-19	-2
158	-24	20	-16	2
157	-33	19	-44	11
158	-26	16	-17	12
157	-4	11	-19	7
158	19	10	-20	3
158	32	15	38	14
158	38	17	6	13
157	47	14	28	10
158	59	15	57	23
158	53	16	104	15
158	37	20	63	3
158	27	22	16	-1
157	12	15	19	-10
157	5	21	9	-28
157	5	17	-16	-36
157	3	17	-26	-31
157	3	23	-42	-25
158	-5	17	-121	-21
157	-8	19	-73	-15
158	-8	17	26	8
157	-13	11	82	10
158	-16	11	61	10
158	-6	22	74	19
157	1	26	84	22
157	-1	23	-10	18
158	-6	18	2	8
157	-6	18	-17	-7
157	-4	21	57	-18
157	-6	14	90	-26
158	0	18	-34	-29
157	5	21	-42	-22
157	1	17	-70	-13
158	1	21	-45	9
157	5	21	20	19
158	4	22	-25	23
157	0	16	-43	26
157	-1	18	-14	20
158	0	16	18	-4
157	0	15	-43	-16
158	5	22	-112	-22
157	10	26	-84	-26
158	8	21	-48	-16
158	3	13	54	-13
158	8	17	148	-18
157	7	19	144	-13
159	7	20	64	7
157	4	19	-33	17
157	5	17	-32	26
158	8	18	-20	19
157	1	12	5	8
157	0	14	59	11
158	1	16	74	21
157	-3	9	49	16
158	0	11	-2	19
157	1	16	13	29
158	8	23	2	23
157	17	24	-24	15
157	13	18	15	2
157	2	17	56	-23
158	11	22	36	-31
158	23	26	-54	-31
158	18	19	31	-17
157	4	21	85	0
157	1	17	49	-13
157	1	15	157	-8
157	3	18	84	-6
157	3	13	20	-8
157	2	17	-5	2
157	3	22	-167	12
157	4	22	-169	31
158	3	17	-98	29
158	4	18	-124	27
158	9	24	-104	29
157	9	16	-59	23
158	5	17	-7	23
157	7	21	118	8
157	7	22	174	-13
157	8	17	93	-13
158	5	11	48	-17
158	5	12	61	-30
158	3	15	-44	-26
158	2	14	-48	-5
157	-1	14	17	3
158	2	15	65	-10
157	-2	19	85	-11
158	-12	17	-39	0
158	-12	8	-91	7
157	1	21	-82	15
158	8	21	-57	9
157	10	17	-19	-4
158	13	20	13	0
157	17	18	98	9
157	24	18	154	18
157	24	23	107	18
158	13	25	13	16
158	12	21	-7	2
157	11	18	-10	-7
158	6	19	-2	-9
158	6	18	21	-7
157	-1	16	35	-3
158	-9	14	65	-1
157	-9	19	-2	5
159	1	19	-22	7
157	1	16	-20	3
158	4	19	-96	6
158	7	20	-151	8
158	11	24	-138	9
158	20	28	-78	17
158	20	24	-38	16
158	9	11	58	16
158	8	8	168	13
158	10	14	163	14
157	3	17	105	17
158	0	17	55	3
157	1	18	27	-16
158	0	23	-35	-15
157	5	27	-42	-17
158	-9	22	21	-38
157	-17	15	64	-17
157	-9	22	94	-1
158	-6	19	37	-1
157	3	21	-50	5
158	5	16	-31	-14
158	1	9	-50	-26
157	11	13	-82	-14
157	23	16	-127	-2
158	27	26	-181	-13
157	24	24	-113	-18
158	15	17	2	4
157	9	10	177	15
158	7	12	145	17
158	5	9	111	29
157	3	17	182	24
158	5	24	18	14
157	4	26	-53	-6
158	1	21	8	-27
158	-2	19	5	-35
158	-1	22	43	-11
158	3	18	67	20
157	3	15	0	29
157	5	13	-29	31
158	3	15	-30	8
157	-4	12	18	-23
158	0	19	-3	-42
158	3	19	-55	-22
158	9	13	15	-12
157	10	22	31	-4
157	6	21	-12	9
157	-1	18	-20	15
157	-3	18	14	25
158	3	19	15	19
158	5	19	43	13
157	5	21	64	4
158	8	21	81	-1
158	8	13	36	12
157	7	19	-112	21
158	8	25	-52	21
157	7	20	-1	23
158	8	21	14	18
158	4	20	46	14
158	1	14	-4	4
158	1	14	-41	6
157	1	14	-120	18
157	3	16	-22	3
158	-1	15	78	1
158	1	18	41	-3
158	2	21	29	-5
158	1	22	-17	0
158	8	17	27	-2
158	16	17	54	9
157	17	19	-12	7
157	7	16	-36	-4
158	8	16	-28	-22
157	7	14	-35	-25
158	3	14	-73	-18
157	-9	17	-87	-8
158	-19	24	-34	3
157	-4	19	14	3
157	5	17	24	3
158	11	13	81	6
157	12	10	167	16
157	13	13	144	10
158	24	15	21	-1
157	28	25	51	-13
157	14	25	90	-12
158	5	29	-67	0
157	12	28	-92	8
157	7	23	-25	9
157	0	19	15	3
157	0	16	48	-9
158	3	23	-17	-4
157	5	22	-35	7
158	7	20	-15	-10
158	7	12	-1	-12
158	7	14	35	-4
158	6	20	-23	-1
158	8	22	-4	2
157	2	15	58	4
157	-3	15	17	4
157	-10	16	31	0
158	-14	17	6	10
158	-6	13	-24	11
158	-2	12	-8	4
157	0	16	-32	-14
157	4	17	-46	-29
157	20	23	-6	-24
158	28	24	56	-9
157	21	26	27	-1
157	11	23	15	-6
158	6	14	30	-15
157	9	19	42	-6
157	3	17	64	2
157	-1	15	95	6
157	0	19	34	27
157	2	21	-46	35
158	1	21	-38	36
158	3	18	-85	32
157	3	25	-44	30
157	6	27	24	30
158	8	23	83	21
157	2	17	121	13
157	-1	10	32	0
157	-2	14	-25	-22
157	1	13	-50	-40
158	4	19	9	-33
158	7	18	-8	-28
158	8	13	-131	-25
157	6	23	-118	-2
158	8	23	-133	15
158	4	18	-106	23
158	5	19	-82	15
159	3	19	-8	9
157	4	15	241	15
158	5	11	406	1
157	2	5	237	-11
157	-3	10	51	-4
157	-6	16	108	-1
157	-4	15	42	0
158	1	14	-55	0
158	3	11	-98	-10
158	5	13	-80	-6
158	11	20	-63	7
158	14	22	-51	7
157	12	19	-51	1
157	12	21	-65	4
157	4	18	-2	4
157	1	17	-13	8
158	4	26	-13	14
158	16	31	-43	17
157	18	24	-27	12
158	8	23	4	-10
158	5	21	61	-23
158	9	19	103	-13
158	4	24	35	-12
158	-5	20	90	2
158	-4	14	27	23
157	0	17	-42	15
158	-1	9	-15	13
158	0	11	-49	10
157	-3	13	-12	3
158	-19	10	-3	13
158	-21	21	-28	9
157	0	20	8	-12
157	9	19	39	-27
157	11	17	37	-23
158	18	22	43	-7
157	21	23	26	-6
158	28	21	11	3
158	35	26	0	13
157	33	25	-7	10
158	30	19	-11	-2
158	23	15	-30	-13
158	16	22	34	-20
157	13	22	30	-25
158	6	24	-23	-1
157	-3	21	-12	15
158	-5	16	-104	8
157	-5	15	-161	11
157	-4	13	-107	7
159	-5	11	-4	1
157	-8	13	121	5
157	-10	15	221	2
157	-5	12	253	-7
157	3	19	107	-1
157	9	24	-68	11
157	-4	24	22	14
157	-7	20	79	20
157	-5	19	43	24
158	-1	25	30	25
158	3	23	-9	41
158	3	18	-15	34
157	2	15	-79	14
158	1	14	-111	13
158	3	18	-106	19
158	3	21	-48	-7
158	-2	11	-53	-34
157	-3	11	-65	-37
158	1	13	-51	-38
157	4	15	-68	-33
158	7	16	103	-32
158	8	19	171	-30
157	9	21	62	-18
157	10	13	38	-7
157	15	14	58	-1
157	13	12	57	-9
157	5	15	105	-1
158	8	23	48	9
157	8	23	-26	15
158	9	24	16	17
158	7	19	5	10
157	5	18	-18	10
157	5	21	-35	1
157	0	15	-4	-2
158	3	16	-3	12
157	2	14	-24	23
158	2	15	-17	8
158	4	19	-38	4
157	5	19	-114	10
157	5	23	-117	17
157	1	25	65	20
157	5	26	81	12
157	5	24	-50	2
157	6	24	13	-11
158	8	19	36	-16
157	10	19	10	-18
157	8	18	35	-4
157	7	13	68	13
157	4	17	37	15
158	2	14	8	11
158	0	7	86	-7
157	0	13	-24	-25
158	3	19	-124	-10
158	8	19	-122	12
157	7	21	-68	2
157	8	19	105	-5
157	12	26	139	-6
157	17	19	92	-12
158	7	15	101	-8
157	5	24	98	-6
158	5	19	-29	-2
157	5	22	-47	9
158	6	22	42	4
158	3	18	14	0
157	5	18	91	6
158	2	17	83	-2
158	2	14	72	12
157	10	14	4	27
157	12	24	-20	18
158	5	17	69	6
158	3	17	-79	10
157	6	18	-132	15
157	6	17	-217	7
158	1	15	-162	9
158	-7	14	103	16
158	-23	14	68	13
158	-28	24	-90	9
157	-10	26	36	-4
157	-4	8	173	-8
158	4	9	-8	3
158	19	18	-158	4
158	24	18	-74	-8
158	37	17	-12	-12
157	38	23	37	3
157	27	23	94	10
157	17	21	14	14
157	18	21	-37	21
158	15	25	2	24
158	7	17	23	14
158	4	10	41	-1
159	2	13	25	-18
158	4	17	13	-40
158	5	23	36	-49
158	-1	22	52	-49
157	-4	15	50	-37
158	-1	18	-20	-14
157	-1	22	17	-5
159	-2	22	60	4
158	0	17	12	10
158	-1	12	44	-1
157	-1	20	42	-17
158	3	26	-32	-29
158	2	17	-90	-18
158	-7	13	-38	4
158	-19	9	32	11
158	-17	14	30	11
158	-6	17	29	19
159	-3	16	37	21
157	3	17	5	31
157	5	15	-28	34
158	11	22	-49	35
157	23	18	-42	29
157	29	17	44	16
157	27	24	58	16
157	22	27	5	7
158	19	23	33	-8
157	13	17	23	-22
158	9	16	-31	-18
158	5	23	-37	-1
158	4	25	-55	7
158	4	23	-52	10
157	2	18	-13	2
157	-1	12	60	0
158	-5	14	133	17
157	-1	13	102	20
157	-3	14	90	21
158	2	19	3	22
157	5	17	-31	8
158	4	17	53	-10
157	3	18	-34	-20
157	0	17	-32	-25
157	-7	14	105	-35
158	-9	15	89	-34
158	-7	17	-36	-21
159	-10	17	-27	-10
157	-5	15	-53	-2
157	3	18	-75	0
157	8	12	23	-1
158	11	11	15	7
158	22	15	-4	6
157	40	21	-42	13
158	34	27	-60	18
157	18	23	-28	24
158	10	19	33	27
157	14	19	-14	14
157	8	21	-107	10
158	8	23	11	1
157	6	20	54	2
157	3	15	47	8
158	1	14	47	-1
158	0	16	68	-16
158	1	16	99	-6
157	0	13	15	3
157	0	11	17	0
158	-3	14	-11	9
158	-1	15	-68	10
157	-5	16	-25	15
157	-5	21	31	19
157	-5	23	-2	16
157	0	18	-23	7
159	10	21	-117	12
158	11	19	-239	-1
157	5	17	41	-16
157	5	26	259	-16
157	6	21	49	-6
157	3	18	-18	14
158	7	24	17	4
157	7	18	61	-21
158	3	15	104	-25
158	3	16	38	-26
157	5	18	77	-39
157	5	17	1	-33
158	4	23	2	-25
157	4	22	26	-21
158	4	21	2	-4
157	7	24	-1	11
157	5	18	-43	19
158	0	16	-17	22
157	-13	15	-63	21
157	-18	18	-32	25
158	-5	16	10	28
158	3	21	17	17
158	8	22	62	13
158	12	23	60	10
157	21	17	14	2
158	28	16	-15	-10
158	26	16	-3	-10
158	17	21	-16	2
158	15	27	-8	11
158	14	23	-20	14
157	10	20	11	13
158	5	16	57	14
157	5	17	-10	14
158	8	25	-62	7
157	5	22	-25	5
158	-1	13	4	4
158	-1	7	52	-9
158	0	13	35	-5
158	4	15	-49	-11
158	3	15	-27	-26
159	3	13	-48	-32
158	2	16	-53	-34
158	3	22	-6	-21
158	1	13	53	4
158	2	18	89	15
157	4	26	35	18
157	4	19	20	6
157	2	22	63	-18
158	4	24	121	-21
158	4	19	89	-19
158	4	21	16	-1
157	6	15	-23	28
157	3	9	-71	30
157	1	13	-89	30
158	3	20	-37	34
157	3	22	-18	35
157	6	21	-53	27
158	4	17	-34	3
157	7	15	-22	2
158	10	21	-5	-10
158	10	17	41	-31
157	2	13	121	-21
158	-5	14	78	-18
157	-6	15	8	-26
158	1	17	-9	-25
158	-5	17	-72	-10
157	-19	14	6	-2
158	-11	21	62	4
157	9	22	2	1
157	23	22	-58	0
158	32	31	4	19
158	31	27	102	22
157	29	26	136	20
157	28	26	31	10
157	25	13	10	9
158	22	13	69	16
158	19	13	8	14
157	11	16	14	12
157	6	17	-51	10
158	4	19	-2	17
158	0	17	-22	17
158	-3	16	-56	11
158	-2	17	-78	14
158	1	18	-65	9
157	-3	17	62	-6
158	-2	19	-61	-3
157	-4	20	-14	-1
157	-1	14	18	-6
158	1	17	90	-24
157	-1	14	202	-33
158	0	17	86	-25
157	-2	17	107	-21
157	1	19	37	-19
158	-1	16	-62	-13
158	0	22	-114	7
158	3	24	-92	9
158	3	14	15	13
157	-1	17	9	20
158	-8	15	-47	24
158	-12	17	-102	23
157	-12	17	-61	17
158	-4	21	-20	16
158	4	22	-15	1
157	11	19	-23	-12
157	18	17	3	-25
157	21	11	102	-32
157	23	15	71	-22
157	16	18	18	-9
157	9	17	40	-6
157	10	24	1	-2
158	2	21	-31	12
158	1	23	-4	23
157	4	28	1	32
158	4	24	-1	40
159	7	24	-31	44
158	8	23	14	25
158	5	11	105	2
158	3	11	102	-14
158	3	11	8	-28
157	0	15	-40	-19
158	1	19	26	-12
158	1	13	-26	-8
157	1	18	4	1
158	5	15	35	-2
157	6	15	-13	-7
158	10	18	-51	-9
158	8	19	-137	-25
158	5	21	-98	-26
158	7	23	-19	-23
157	8	27	111	-23
158	5	25	154	-12
158	9	28	171	-7
158	8	19	86	6
158	5	19	-29	13
157	7	24	34	24
158	8	19	-36	28
158	8	18	-16	24
157	5	6	-6	23
158	3	3	1	12
157	-1	12	40	9
157	3	19	-11	4
158	6	19	2	12
158	1	13	6	13
157	1	15	-34	5
158	0	15	-67	4
157	-1	13	-31	2
158	1	15	18	11
157	0	13	45	7
158	3	15	41	0
158	1	19	-4	-11
157	-2	17	-43	-12
158	3	21	4	-4
157	14	25	-5	1
157	15	21	8	-2
157	5	22	48	-6
157	8	20	31	2
158	3	22	103	2
158	-4	18	59	9
158	-4	14	4	20
157	-3	14	-16	23
157	4	13	-90	19
158	4	12	-106	26
158	11	11	-8	29
157	21	18	150	10
157	25	18	164	-7
157	24	22	56	-10
157	20	21	48	-18
157	18	24	-5	-31
157	10	31	-92	-45
158	3	21	-126	-47
157	-1	23	-135	-27
158	4	20	19	-11
157	4	15	100	10
157	-1	21	85	24
158	0	19	42	15
157	1	14	-28	-4
157	-1	10	-61	-19
157	-3	13	-50	-13
158	0	22	-30	-4
157	1	15	-47	13
158	-1	14	22	20
158	1	19	-54	21
157	1	17	-77	10
157	-1	17	4	4
158	3	13	65	8
157	4	11	111	1
157	8	25	-51	-1
158	8	29	4	-13
159	9	23	101	-25
158	9	25	55	-26
157	6	24	83	-20
157	3	16	52	-2
158	2	11	5	7
157	3	14	8	5
158	-2	15	20	19
158	1	17	-27	22
157	0	19	-41	22
157	2	17	-60	20
157	7	22	-94	9
157	4	21	-52	0
157	4	20	-48	-19
157	3	18	-46	-10
157	5	16	-3	7
157	7	16	91	-6
157	10	17	121	-17
157	5	18	97	-17
158	3	17	54	-3
157	6	22	1	16
157	5	18	103	18
158	9	23	42	24
157	8	21	-21	23
159	5	16	49	10
157	3	12	41	4
158	2	9	64	13
158	4	13	20	22
158	9	22	47	28
157	7	16	27	17
157	1	10	-69	-2
157	5	18	-73	-5
158	7	17	47	3
157	6	17	46	3
158	10	19	-46	6
158	11	20	61	10
157	9	23	29	6
157	7	19	-51	0
158	8	20	-118	-2
157	8	20	-102	-10
157	4	11	-42	-8
158	0	6	-19	1
158	-2	5	16	-2
157	-1	16	17	4
158	5	22	112	0
158	4	22	70	2
157	1	23	-6	-5
158	-3	16	-73	-12
157	5	21	-109	-5
158	16	20	-33	4
157	15	23	-12	6
157	6	19	-30	-7
157	8	21	-32	-1
157	7	23	51	-4
157	5	14	61	-2
157	9	19	-22	1
159	8	23	33	-11
157	-3	19	46	-5
158	-16	22	29	-2
157	-6	23	72	-7
157	7	19	14	-11
157	10	17	-6	-11
157	10	15	25	-7
158	3	17	72	6
158	2	21	81	12
158	17	22	12	11
157	21	20	16	15
157	11	22	25	12
157	9	17	25	16
158	9	14	-30	10
157	16	18	-74	5
158	17	20	-17	-4
158	14	28	-42	-14
157	9	26	-62	-20
158	5	20	-7	-26
158	10	20	9	-25
158	0	21	-31	-18
157	-3	18	-20	-33
158	-2	19	20	-38
158	1	21	-6	-15
158	2	20	-33	12
158	1	19	-96	31
157	1	15	-51	30
158	-6	9	78	23
158	-12	8	232	10
158	-22	10	347	-1
157	-16	16	161	4
158	-4	22	30	16
158	-3	24	-12	15
158	2	24	-45	16
158	8	24	-7	15
157	11	20	-62	7
157	16	12	5	3
158	22	13	95	-6
158	18	14	-15	2
158	8	18	-126	9
158	4	17	4	7
157	8	15	82	9
157	12	13	83	7
157	10	13	56	4
157	11	17	-72	-1
157	8	17	-102	4
158	11	18	-96	9
157	9	19	-55	16
157	5	19	-109	34
158	1	14	-82	47
157	1	13	51	38
157	0	10	21	4
157	0	19	-32	-20
159	10	28	-46	-40
158	8	24	14	-57
157	2	17	54	-45
159	7	22	45	-17
158	4	19	30	-6
158	0	20	8	-4
158	1	21	25	-13
158	3	17	-43	-17
157	5	21	-53	-5
157	7	18	39	1
158	3	16	38	9
157	3	22	39	13
157	3	18	5	10
158	1	15	-20	11
157	1	19	-24	18
158	2	14	-41	25
157	3	10	40	19
157	1	16	86	22
158	5	19	91	22
158	4	15	87	14
158	3	17	17	-2
157	7	18	57	-8
158	9	21	71	-3
158	11	22	-53	-18
157	12	30	-134	-29
158	14	27	-122	-36
157	8	15	-52	-21
157	7	15	4	-1
157	2	15	39	0
157	4	12	95	8
158	2	10	107	8
157	0	15	-6	22
157	5	18	-68	31
158	3	21	-20	31
157	0	22	29	29
158	-5	16	100	26
157	5	22	125	13
158	23	23	46	-10
158	18	17	5	-26
157	4	16	-66	-41
158	-3	22	-101	-39
158	-1	22	18	-28
157	-7	17	8	-18
157	-13	8	26	-8
157	-12	9	22	-1
158	-4	15	-16	4
158	0	12	2	6
157	10	22	-20	15
158	17	27	1	24
157	24	21	6	28
157	28	23	81	27
157	24	26	73	10
157	14	23	10	6
158	12	15	95	23
158	13	12	95	8
158	1	14	-5	3
158	3	18	-78	2
157	3	21	-66	-17
158	1	17	-99	-24
157	4	13	-124	-24
158	3	14	-72	-19
158	4	15	4	-20
157	4	17	107	-23
157	3	20	66	-21
157	-1	21	134	-6
157	1	23	83	17
158	1	18	-99	23
157	0	21	-121	18
157	3	24	-118	22
158	5	21	-30	20
158	3	22	-36	24
157	5	25	18	24
157	7	21	81	29
157	4	19	30	30
157	4	14	27	3
157	-2	10	90	-2
157	-3	17	79	-11
157	1	17	-89	-26
157	2	23	9	-20
158	4	28	111	-19
157	-4	24	43	-13
158	-13	26	54	3
157	-8	24	8	9
157	3	17	2	6
157	3	13	-7	-8
157	9	15	-10	-14
158	15	17	-42	-16
158	23	16	-22	-15
157	29	16	28	-13
157	25	21	4	-6
158	18	24	89	11
158	14	23	91	17
157	15	19	24	17
158	9	13	2	16
157	1	12	7	21
158	1	13	-10	25
157	-1	8	-51	21
158	-3	13	-51	8
158	0	17	-88	-3
158	1	14	-91	-8
157	0	18	9	-13
158	0	20	-7	-4
157	5	21	-48	-14
157	7	18	3	-8
157	5	15	49	1
157	5	17	83	-5
157	3	19	44	3
157	2	14	85	14
158	3	11	145	24
157	3	13	88	21
157	4	17	51	15
158	6	26	66	10
157	3	25	11	4
157	0	14	-68	-22
158	0	6	-124	-36
158	2	11	-116	-23
158	1	17	-99	0
157	-3	17	-86	4
158	-7	17	5	0
158	-4	19	-25	-1
157	-1	24	-1	-12
158	-4	21	72	-24
157	-6	18	80	-33
158	0	13	75	-15
158	7	11	-24	-2
158	16	17	-55	-1
157	33	25	-116	3
158	30	35	-167	10
157	21	28	-31	14
158	20	15	221	15
157	16	12	311	17
157	23	14	85	7
157	23	22	20	14
157	22	27	-8	32
157	14	25	-90	30
157	3	13	14	30
157	-1	9	-16	18
157	-5	14	3	7
158	-4	21	12	-4
158	-4	20	19	-15
158	-5	21	28	-7
157	-12	19	-49	0
157	-16	17	-48	4
158	-13	22	-60	-4
158	-7	19	23	-13
157	1	17	90	-22
158	5	12	87	-25
158	14	19	74	-26
158	18	20	48	-13
157	16	15	2	10
157	8	22	-6	15
158	5	23	-3	18
157	8	21	-9	18
158	3	18	-5	4
158	-2	17	-58	-1
157	0	16	-16	-14
157	1	20	18	-6
157	4	25	17	13
157	7	19	63	7
157	5	14	87	4
157	4	14	81	9
157	7	22	-58	21
158	6	23	-188	21
157	5	9	-147	11
157	7	8	-47	2
159	3	14	14	4
159	0	17	8	17
158	-2	18	42	10
157	-3	17	168	3
158	-4	19	100	-9
157	-1	18	12	-23
157	3	19	37	-7
157	5	22	-114	-9
158	4	25	-59	-5
157	11	29	-12	3
157	11	26	3	0
157	8	12	10	12
158	7	8	-40	23
158	-3	13	45	23
158	-5	14	24	25
157	3	17	37	28
157	4	17	52	18
157	10	15	57	8
158	9	17	-21	-13
157	10	17	-58	-29
158	22	19	46	-39
157	23	21	40	-47
157	15	30	-17	-37
158	15	29	-73	-26
158	11	21	-94	-19
158	9	17	-120	-13
158	6	18	-46	-9
157	0	21	97	-2
157	2	16	126	-2
158	3	19	64	14
157	1	21	105	14
158	1	18	51	5
157	1	21	-34	7
158	-1	17	64	6
157	1	17	21	13
157	3	19	-37	12
158	2	19	-39	18
157	3	19	72	17
157	-2	11	173	9
158	3	17	2	10
157	3	15	-26	14
158	-3	10	19	7
157	-1	11	-18	10
158	1	14	49	15
157	1	16	5	6
157	1	16	-44	3
158	1	17	-30	-7
157	2	19	-23	2
158	5	19	-7	11
157	10	17	-24	11
158	17	23	-29	15
158	16	21	-9	8
157	12	17	37	8
157	8	13	24	3
158	1	15	-1	-1
157	5	24	12	-3
157	8	21	26	-1
157	10	24	8	-2
157	8	27	-6	-3
158	3	16	32	1
157	8	22	-40	16
157	12	29	-81	14
158	8	22	-8	-6
158	1	19	-4	-12
157	3	14	6	-24
157	2	9	4	-22
157	3	14	38	-30
158	0	19	113	-44
157	3	19	17	-31
157	7	22	-18	-29
158	2	17	60	-21
158	4	13	44	-5
158	5	16	39	4
157	5	14	11	12
157	3	17	-51	15
158	0	18	-27	19
159	4	19	21	19
157	7	20	-27	25
158	9	17	-31	30
158	5	16	-57	27
158	5	19	-130	25
158	9	24	-84	14
158	7	19	-25	-4
157	3	17	63	-5
157	6	17	83	-3
157	4	13	112	-6
157	-1	17	148	-7
157	-2	21	-22	-11
157	-10	19	-71	-11
158	-9	16	-30	3
158	-3	12	-53	9
158	-1	16	-10	0
158	13	25	31	2
158	21	24	69	9
158	19	24	150	14
158	20	21	149	13
157	24	22	2	6
157	24	24	33	-3
158	19	20	37	-11
159	1	15	-56	0
157	-3	17	-55	3
157	3	18	-58	-2
157	-2	17	-8	0
158	2	15	1	-8
157	4	11	8	3
157	12	22	-51	6
158	18	23	-40	11
158	14	19	-6	10
158	13	17	8	1
157	8	11	38	2
158	6	13	-32	-2
158	1	12	88	2
158	-5	19	174	6
158	-9	15	119	19
157	-9	18	6	26
158	-5	19	-23	17
157	-7	17	19	15
158	-3	22	-64	8
157	-4	17	-57	3
157	-6	23	-90	3
157	1	23	-49	-7
158	0	19	-17	-23
158	3	18	-36	-28
158	11	15	23	-37
157	21	13	54	-49
158	14	14	74	-45
157	5	13	-16	-21
158	8	17	-112	-1
157	7	18	-107	-2
158	6	18	-102	4
157	7	22	-84	9
158	1	14	115	11
157	1	17	182	17
157	1	23	32	18
157	4	25	103	21
157	2	21	112	19
158	3	18	13	16
158	12	21	38	16
158	12	18	-6	13
158	6	16	16	5
157	8	10	18	-1
158	4	14	-4	-5
159	5	19	18	8
158	8	19	16	13
158	9	18	25	0
157	4	19	-6	-1
158	0	20	-26	11
157	-15	19	-60	9
157	-16	19	-86	-2
158	-2	15	-44	-4
158	2	14	-4	-7
157	8	17	33	-5
157	12	19	87	-1
157	17	18	40	-1
157	25	15	-88	-15
157	26	24	-107	-8
158	22	24	-73	2
158	17	20	-6	-2
159	16	17	121	1
157	11	11	213	0
158	9	14	191	12
157	7	19	74	14
157	2	17	-14	20
157	3	18	-48	16
157	1	16	-45	7
158	-3	18	-37	-12
158	-7	17	-38	-24
158	-15	19	-39	-9
158	-12	19	-42	-2
157	-11	17	-31	2
158	-14	18	-18	-5
158	-8	12	28	-4
157	-4	11	60	2
158	12	14	43	4
157	32	16	48	3
157	27	25	15	6
157	19	29	-18	6
158	19	26	14	5
158	26	28	-5	13
158	23	23	-14	13
157	15	13	-28	2
158	10	15	-32	-1
157	5	14	38	4
157	2	17	66	7
158	-2	20	23	2
158	-1	18	-19	2
157	-2	21	-3	5
159	-3	21	20	-9
157	1	15	28	-21
157	1	17	9	-12
157	0	18	-40	-2
158	-2	17	-55	-5
158	-5	17	6	-8
157	-9	15	73	-5
158	-7	16	81	4
157	-3	16	55	10
157	0	19	52	7
157	4	24	120	2
158	8	26	96	10
158	5	23	-1	6
158	7	23	-94	3
157	15	26	-250	9
158	14	24	-195	13
158	4	10	-66	21
158	4	9	-80	16
158	5	16	50	6
157	3	21	126	2
157	5	19	13	-4
157	11	21	10	-22
158	6	22	15	-32
157	6	21	69	-34
158	5	20	163	-21
158	4	15	80	-1
158	2	11	96	0
158	2	14	48	9
157	-3	14	-24	-4
157	-17	11	-24	-18
158	-20	14	-98	-2
157	-6	17	-116	12
157	-8	17	-68	20
157	-3	16	6	23
158	8	17	-1	7
158	18	17	23	7
157	30	22	-17	9
158	30	20	-20	7
157	21	14	49	0
157	23	18	28	0
157	26	22	61	2
158	20	25	58	-2
157	6	24	41	-1
158	-5	22	30	2
158	-19	23	22	10
158	-14	21	30	9
157	-2	15	19	14
158	4	7	26	20
158	2	9	3	17
158	-4	17	-18	12
158	17	23	-24	7
158	27	24	-24	10
158	20	25	-9	7
158	12	22	-7	-3
159	12	21	-12	-2
158	11	20	13	-2
158	14	21	51	2
157	21	25	39	-1
157	17	24	28	-1
157	15	20	19	4
157	7	22	20	6
158	7	23	13	6
157	0	17	9	-6
157	-8	14	17	-2
157	-6	10	17	4
159	-7	11	-15	2
157	-7	9	-64	-1
158	-5	11	-35	-8
158	-5	15	-58	-15
157	-6	16	-95	-7
158	-4	15	-40	4
158	1	16	60	0
157	8	22	108	-6
157	11	21	-2	-2
157	3	20	-5	-6
158	0	21	72	-9
158	3	25	72	-12
158	3	15	99	-26
158	1	10	32	-17
157	3	9	-23	5
158	-1	9	-17	-3
158	-3	18	-162	-3
158	3	24	-214	2
158	7	26	-33	-8
157	8	21	33	7
158	7	17	-30	16
158	6	16	-71	21
157	4	14	38	14
157	4	15	146	20
158	8	23	109	31
157	9	18	127	-2
157	0	9	132	-21
157	0	20	85	-15
157	7	20	125	-6
157	4	21	105	-21
157	5	24	20	-28
157	3	24	-91	-5
158	8	30	-219	9
158	9	27	-178	10
157	1	19	-109	17
157	3	13	-54	19
158	3	10	196	11
157	7	14	233	17
157	14	21	-15	5
158	5	15	83	-5
158	8	10	95	8
157	13	17	-48	7
158	10	15	2	10
158	7	18	-26	9
157	7	21	-51	0
158	5	22	-35	6
157	1	20	-20	4
158	-4	18	-13	2
157	-17	16	-16	6
158	-12	19	-3	7
158	5	19	27	2
158	4	15	62	2
158	10	19	22	7
157	13	18	-17	3
158	12	15	5	-10
158	22	16	18	-15
159	21	15	63	-2
157	13	19	57	-3
157	16	28	-3	-1
158	10	23	51	-4
158	1	22	16	4
157	2	20	-88	6
157	-1	7	-112	-7
158	-2	15	-72	0
158	0	21	-61	4
157	3	25	-110	14
157	4	24	-93	10
158	3	18	-89	2
157	-3	19	-39	1
157	-8	17	29	0
157	-13	15	145	-6
157	-21	16	183	0
157	-15	19	29	4
158	1	21	2	-9
158	13	22	11	-22
157	25	15	18	-29
158	29	16	53	-9
158	31	20	61	2
157	33	22	69	0
158	30	22	18	9
158	17	24	-31	17
157	2	17	-39	3
158	-3	18	8	-4
157	-4	22	88	-7
158	-6	17	73	-12
158	-7	19	1	-13
157	7	23	-35	-20
158	12	15	-14	-16
158	1	12	19	-10
158	3	13	42	7
158	1	14	84	15
157	2	14	97	14
158	4	17	78	16
157	4	17	27	17
157	5	17	-40	15
158	3	14	-91	12
158	3	14	-127	16
158	7	17	-91	4
158	6	18	-72	10
158	5	19	-109	13
158	3	16	-82	14
157	3	18	-29	14
157	-3	22	-20	-1
158	-14	19	70	15
158	-12	11	187	19
158	-4	7	188	2
158	-15	11	52	-9
157	-12	11	-11	-5
158	-1	15	0	1
158	10	24	-48	-4
158	29	26	-3	2
157	27	19	-72	6
158	18	12	-60	14
157	29	21	43	19
158	39	23	79	9
157	31	15	217	2
158	21	23	150	-17
158	14	27	41	-21
157	8	24	86	-22
158	5	23	51	-15
158	4	24	9	-4
157	3	22	-5	-8
158	-3	16	-28	-12
158	-8	16	-103	-13
157	-15	23	-150	-4
157	-20	22	-107	3
157	-15	14	-68	-8
157	-8	13	-36	-12
157	0	17	-48	0
157	3	19	-85	4
157	12	22	-55	-1
158	23	24	-35	1
158	21	24	-32	13
157	10	21	-4	22
158	7	14	15	14
158	8	13	-10	1
158	0	14	5	-8
157	-1	12	108	-2
158	2	19	87	13
158	0	17	45	8
159	-1	9	89	8
157	1	15	82	7
157	-1	14	95	5
158	-6	14	57	7
158	-3	16	61	7
158	-3	15	71	7
158	0	15	15	0
158	0	18	-2	-2
158	-1	15	-50	-7
157	3	17	-57	2
157	16	26	-18	20
158	19	22	-24	29
157	11	25	10	27
158	10	25	40	24
158	7	15	18	27
157	4	10	17	22
158	5	12	-52	17
158	8	21	-65	14
157	8	20	-40	6
157	5	13	-36	-6
158	7	15	-24	-30
158	7	21	-44	-47
157	7	18	-22	-50
157	4	19	-14	-52
158	4	16	25	-39
158	1	22	27	-31
158	-1	24	44	-32
157	3	14	135	-17
158	7	16	111	14
158	13	15	83	29
157	9	18	8	28
158	4	13	-81	27
157	6	7	-172	8
158	11	17	-254	-1
159	9	24	-54	13
158	7	26	44	11
157	5	24	59	2
157	3	23	212	-9
157	3	21	236	-23
157	0	8	233	-15
158	-1	9	102	-1
157	4	26	-12	-5
157	5	22	-88	0
157	7	24	-117	13
158	9	19	13	14
157	8	10	86	11
158	11	23	23	2
157	13	22	-39	-3
157	8	18	-16	12
157	7	17	-82	11
158	-4	15	-101	3
158	-19	15	-23	-1
158	-11	11	72	9
157	4	13	-17	13
157	0	18	-92	10
158	0	19	62	13
158	2	16	35	9
158	7	12	-42	19
158	21	17	38	19
158	21	22	101	18
157	22	23	78	12
157	32	19	107	-2
158	25	24	29	-5
158	15	36	-39	-12
157	7	17	60	-20
158	2	9	-26	-22
158	7	18	-83	-6
157	7	21	-42	2
158	3	19	-41	6
158	1	15	-57	8
157	-4	13	-85	3
158	-6	16	-24	4
157	-2	22	45	12
158	-1	22	47	14
158	-3	21	27	5
157	-4	19	57	1
157	-1	19	21	-13
158	-4	15	-81	-7
158	-1	11	-106	6
158	0	11	-38	6
157	1	12	49	14
158	2	11	35	15
157	5	20	10	8
158	8	21	-105	-5
158	5	17	-149	-8
158	7	24	-4	-3
158	7	21	171	-7
158	3	23	151	-4
158	7	22	45	5
158	5	16	152	17
158	3	19	19	16
157	3	17	-30	-1
158	5	16	-32	-22
158	7	18	-26	-34
158	6	13	112	-37
158	8	19	21	-39
157	7	22	151	-37
157	6	13	83	-34
158	3	17	-60	-22
158	3	19	-17	-2
158	4	22	-81	7
157	4	21	-50	18
157	5	19	-73	25
158	0	15	-46	23
157	3	17	8	20
157	3	26	29	23
158	14	27	23	26
158	21	23	40	20
158	12	21	92	19
158	10	24	83	12
157	12	15	102	2
157	5	15	25	1
157	4	20	-96	11
158	5	15	-106	-2
158	1	9	-77	1
158	1	16	-13	10
157	-13	20	-26	8
157	-17	19	-29	9
157	-6	10	4	3
157	0	10	-30	8
158	6	18	70	11
157	12	19	51	10
158	19	22	-10	7
157	30	18	45	14
157	28	19	-2	8
159	14	19	25	-1
158	11	17	86	-13
157	10	21	28	-28
157	6	16	-17	-37
158	3	18	-15	-34
158	7	21	-35	-8
157	8	17	-9	5
158	-3	18	15	-9
157	-10	18	54	-1
157	-13	21	79	16
158	-30	26	38	15
157	-36	22	40	29
158	-24	21	10	30
158	-9	19	-59	28
158	5	14	-85	13
157	15	14	-16	-9
158	29	21	72	-21
158	40	24	75	-20
158	42	19	-22	-19
158	40	17	-139	-15
157	30	21	-120	7
157	18	18	-7	19
158	6	17	16	21
157	7	14	16	17
158	3	17	56	18
158	2	23	52	6
158	1	18	74	-4
158	0	19	66	-11
158	-1	13	91	-20
158	-2	15	8	-28
157	-2	19	-127	-32
158	-2	17	-70	-24
157	-3	14	43	-17
158	-4	10	24	-5
157	-3	15	-45	-7
157	-1	23	75	-2
158	0	25	59	-8
157	0	17	-86	-10
157	2	17	-141	9
157	5	19	-9	12
158	5	17	72	23
158	1	14	85	23
158	2	14	125	31
157	1	19	40	41
158	4	21	78	41
158	2	15	55	41
158	-4	14	-22	17
157	-1	14	-50	-10
157	0	16	-54	-9
159	-2	14	1	-1
157	-3	6	33	-12
157	0	17	16	-25
157	3	24	-12	-32
158	8	26	-17	-39
158	17	25	-20	-40
158	11	17	-8	-23
157	3	14	37	-2
158	11	25	110	10
157	15	27	62	13
158	12	18	-18	15
158	10	17	-27	9
158	11	19	14	7
158	11	19	5	13
157	8	24	-60	16
158	7	21	-60	17
158	7	18	-38	14
158	6	24	-17	18
158	6	21	64	11
158	3	17	78	4
157	3	15	1	3
157	8	13	7	5
158	8	17	-34	9
157	5	14	-62	9
157	4	17	-51	13
157	7	21	-39	5
158	9	19	-25	10
157	3	14	19	6
157	4	12	162	-2
158	9	21	105	-9
159	12	26	41	-9
158	12	28	69	-14
158	11	22	77	-22
157	4	15	49	0
157	4	19	-29	4
158	1	13	-19	0
157	-3	14	-106	-2
157	2	19	-175	-3
158	5	18	-129	10
157	4	18	-84	3
157	2	17	-13	-21
157	1	17	40	-17
158	5	21	20	-9
157	8	19	-11	-10
158	7	15	90	4
157	8	21	172	0
158	8	22	201	-5
158	7	21	97	-7
157	5	16	1	-21
158	3	15	32	-14
157	5	21	-21	0
158	0	17	-34	-8
157	-2	13	-51	2
158	1	17	-19	18
157	5	25	9	24
157	8	22	1	27
157	8	18	-1	11
158	4	18	-90	4
158	0	14	-54	12
158	1	16	-62	6
158	3	15	18	2
157	0	11	225	-4
158	3	17	182	-2
157	5	19	64	-2
158	-1	18	-1	-4
157	-12	22	-25	-2
157	-15	18	-34	7
158	1	16	-34	13
158	8	15	-29	13
158	6	8	-52	23
158	8	6	-72	25
158	16	15	-41	16
158	29	19	-9	12
158	28	21	-26	11
157	19	23	4	4
158	13	22	36	-1
158	15	22	36	4
158	15	21	-8	-3
158	14	19	-42	-17
158	3	12	-11	-9
158	-5	12	33	-18
157	-5	22	15	-25
158	-2	27	-32	-9
157	1	20	6	-9
158	1	16	29	-4
157	-2	10	14	2
158	1	11	-21	13
158	1	14	58	17
157	-3	11	127	-1
157	-3	19	25	-5
157	1	23	-33	-2
157	6	22	-43	-5
158	1	19	-18	-4
158	1	17	-28	-5
158	11	23	-12	0
158	18	26	31	-1
157	10	19	44	-9
158	-5	14	40	2
157	-3	19	4	2
157	-8	7	19	-9
157	-16	2	71	-4
158	-17	15	24	13
158	-12	17	-121	4
158	4	14	-24	-6
158	16	18	128	6
157	22	27	-57	10
158	22	29	-45	15
157	20	19	157	22
157	27	18	92	24
157	33	28	49	33
157	30	23	-4	24
158	23	23	-1	10
157	17	24	-58	-7
157	6	18	-110	-23
158	7	22	-23	-31
157	9	19	-32	-35
158	10	19	-32	-27
157	7	15	-51	-19
158	-2	16	45	-11
158	-1	17	146	-5
158	-6	13	123	0
158	-10	12	32	-1
158	-5	14	9	-1
157	-3	24	13	2
158	0	25	-47	4
158	-3	18	-58	18
158	-1	24	-72	20
157	0	18	-15	19
158	1	14	48	21
158	1	16	66	28
157	4	23	56	35
158	5	23	5	36
157	4	21	-50	31
158	5	19	-27	3
157	4	18	8	-18
157	1	17	-45	-45
157	0	16	-58	-53
157	0	5	-26	-18
157	0	4	-45	-5
158	8	23	-70	-1
158	7	24	-5	-4
158	1	17	78	8
157	5	18	133	10
157	5	22	177	-4
157	5	19	122	-4
157	6	18	-16	-3
157	3	14	-7	-8
157	3	14	5	-9
157	2	16	-38	-7
158	6	23	13	-6
157	9	23	66	-3
157	5	17	94	3
158	9	24	39	19
157	7	24	-12	19
158	6	23	-107	19
158	9	22	-191	13
157	5	18	-106	-1
158	5	18	-47	0
158	9	14	-18	8
157	7	17	55	27
157	10	21	110	31
157	10	22	144	29
157	7	20	112	22
157	6	16	10	9
158	5	16	-81	-2
158	5	17	-135	-7
157	5	24	-209	-25
158	7	24	-144	-43
158	8	19	-31	-41
158	5	18	-3	-33
158	4	17	149	-20
158	-1	14	311	-12
157	-3	17	142	6
158	4	19	-18	9
158	5	14	229	15
157	3	22	122	23
157	3	20	-72	13
158	-2	13	20	11
157	3	17	-7	14
158	11	21	-31	18
157	15	21	-19	9
157	16	24	-31	3
158	8	19	-40	-2
157	-1	11	3	-13
158	0	17	-32	-8
157	7	22	-24	0
158	10	24	-30	4
158	11	24	-14	17
157	9	17	13	12
157	6	17	-39	10
158	7	21	-41	17
158	5	15	12	7
157	4	10	25	6
157	0	6	-12	5
158	-1	5	41	6
158	1	14	65	-3
157	3	25	107	-5
158	2	18	17	-21
158	5	11	-96	-24
157	8	14	-29	-6
158	5	15	-36	-5
157	6	16	-95	9
157	8	18	-70	10
158	5	19	-3	7
157	-7	18	-4	-8
158	-10	17	10	-18
157	-6	15	34	-29
158	-5	13	42	-40
157	5	19	43	-12
158	14	21	84	5
157	24	19	102	14
157	27	14	104	25
159	14	14	-23	19
158	9	24	-156	14
158	8	24	-140	4
158	4	21	-140	0
158	2	19	42	4
157	1	17	93	7
157	0	18	69	-2
158	3	19	73	-7
158	2	19	85	-2
158	-7	21	117	10
157	-17	19	-34	12
157	-7	17	32	-1
158	2	14	25	-7
157	5	11	-18	1
158	12	14	-61	10
159	16	18	-126	11
157	23	23	-29	15
158	26	25	-4	4
157	16	22	128	-5
158	9	18	138	2
157	11	19	10	5
157	8	18	27	7
158	1	16	42	7
157	0	18	55	6
158	1	15	157	8
158	-3	15	74	3
157	-1	15	-54	-6
157	2	18	11	9
157	3	21	-14	26
157	5	22	-68	27
158	1	13	-28	15
157	-2	19	-89	8
158	0	22	-97	-1
158	1	20	-18	3
157	4	26	-23	-13
157	3	19	-14	-24
157	4	21	-3	-19
158	0	10	-26	-27
157	-3	6	-39	-18
158	3	21	16	-14
157	6	19	85	-16
157	5	19	66	-13
157	8	25	-18	4
157	7	25	2	18
157	4	21	57	17
157	3	20	95	5
157	2	18	66	-19
158	4	18	-22	-36
158	2	11	-19	-38
158	2	10	-7	-15
157	8	22	-17	5
157	6	16	-50	8
157	5	14	27	16
158	7	15	48	24
157	3	17	5	13
158	1	19	21	7
158	2	18	-4	9
157	3	19	-6	14
158	5	19	-98	10
158	4	13	-214	2
158	3	8	-176	-1
157	4	18	-6	-3
158	8	23	45	-4
158	7	17	23	-10
157	1	22	129	3
157	1	25	79	18
158	10	25	-73	20
158	4	22	2	15
157	-13	11	67	5
158	-17	18	42	7
158	-2	19	234	17
157	3	8	259	10
158	8	16	-40	1
157	20	26	-96	0
158	22	19	42	-14
157	26	19	80	-6
158	33	22	15	11
158	31	18	-70	6
157	30	22	2	12
157	22	24	-32	-5
158	10	14	-62	-10
157	7	12	131	0
158	3	13	117	-5
158	1	19	94	-11
158	0	22	109	-20
158	-1	25	45	-14
158	0	24	30	-3
158	-3	17	-26	-10
158	-5	17	-40	-14
158	-3	17	-106	13
157	-2	11	-148	20
158	-1	18	-111	16
158	-1	24	-94	12
158	-4	17	3	3
158	-2	14	64	7
157	1	19	50	6
157	2	18	-44	7
158	3	19	-87	9
158	4	22	-75	-2
157	1	14	-78	-9
158	0	15	-8	-4
157	4	17	5	-4
157	5	23	32	1
157	3	18	120	4
158	0	11	104	6
158	2	14	37	1
158	3	15	-62	-2
158	3	15	-79	-6
158	5	19	-29	0
157	4	21	-33	5
157	3	15	33	3
157	5	15	77	6
157	6	19	90	6
158	8	24	41	15
157	10	29	-31	20
158	6	27	-53	15
158	4	24	-84	18
158	6	24	-106	21
157	8	18	-130	12
159	5	9	11	-4
157	3	8	190	-5
158	0	13	151	-6
157	-5	19	72	-5
158	-14	17	157	1
157	-5	29	67	2
157	7	27	-31	0
158	9	14	92	-2
157	17	17	74	2
158	22	16	37	4
159	31	18	-6	5
157	32	16	65	8
158	23	15	43	9
158	16	16	-25	6
158	14	15	10	-13
158	13	23	-77	-45
158	8	27	-83	-65
157	0	22	-64	-60
158	-3	19	-66	-28
157	-5	16	-23	-2
158	-17	13	25	9
157	-22	14	63	11
158	-13	13	71	19
158	-4	15	65	20
158	6	15	10	5
157	2	12	-73	-1
157	5	15	-72	-6
158	16	19	-94	9
158	28	22	-51	19
157	33	18	103	16
157	27	21	115	22
158	16	31	38	38
157	5	26	19	31
158	-4	13	44	17
157	-7	7	3	19
158	-2	15	-114	11
158	1	25	-169	11
157	1	27	-63	11
157	-1	23	61	-10
158	-3	21	110	-24
158	3	15	91	-45
158	-1	11	52	-45
157	3	22	57	-32
157	4	21	-7	-29
158	1	10	4	-15
157	-1	13	57	-2
157	1	21	-46	1
157	3	26	-92	11
157	3	20	-72	23
157	1	15	-82	28
159	0	22	-68	20
157	1	24	-24	22
158	4	13	-30	18
158	2	15	-62	20
158	7	21	-95	21
157	10	15	-29	9
157	8	13	111	3
157	8	17	160	6
157	8	22	257	0
157	5	18	118	-1
158	4	11	32	18
157	4	15	152	26
157	7	26	-52	27
158	8	20	-32	21
157	4	14	61	-5
158	4	17	-32	-31
158	5	14	45	-37
157	11	22	87	-42
158	11	24	55	-34
158	6	18	-70	-25
158	5	18	-83	-31
157	-5	19	-58	-4
157	-16	19	11	11
158	-17	16	49	13
157	-2	14	-8	17
158	5	15	18	-1
158	9	15	-17	-6
158	12	16	0	1
157	22	19	-18	16
157	30	25	-44	24
158	20	23	-72	13
157	12	19	-59	14
157	17	24	-90	26
157	13	24	-103	25
157	6	16	-1	24
157	0	11	94	26
157	-1	7	188	11
157	3	15	102	3
158	1	21	12	-20
158	4	29	35	-43
158	4	22	99	-55
158	1	22	19	-50
157	5	25	-65	-29
158	7	10	-14	-20
157	7	8	-4	6
157	4	20	-16	24
157	-9	19	-36	28
158	-23	14	15	30
157	-22	16	98	22
158	-14	13	107	19
157	3	13	27	15
158	12	13	-2	7
158	20	16	-26	-7
158	27	17	-71	-14
157	26	19	-147	-21
158	21	24	-161	-22
158	25	24	-29	-18
158	26	27	-34	-5
158	17	17	23	1
158	10	19	86	1
157	11	21	60	20
158	3	21	71	25
158	1	23	-35	17
157	-1	22	-39	9
157	-1	22	3	9
158	-1	15	106	7
157	-5	10	103	-12
158	-7	14	-35	-5
157	-2	22	45	7
158	1	18	83	8
157	0	12	104	15
157	1	15	90	13
158	0	21	-25	13
158	-1	17	-17	10
157	0	15	-2	9
158	0	17	-9	0
159	2	15	5	-15
157	2	17	15	-23
158	3	16	3	-16
158	2	17	-39	8
158	7	20	-39	2
158	4	19	-6	4
157	3	21	-52	3
157	6	24	-93	-2
158	5	26	-62	7
158	5	24	-5	4
158	8	26	-16	10
158	19	25	28	12
157	18	16	122	11
157	7	16	-1	13
158	2	18	-46	9
158	0	16	-29	2
157	5	22	-33	-2
158	7	17	12	-11
158	6	8	20	-24
158	0	10	160	-16
157	1	7	150	-4
157	8	13	74	8
157	17	30	29	9
157	13	26	-37	9
158	1	19	-6	7
158	2	22	2	0
158	4	24	19	6
158	3	21	34	10
158	2	17	45	16
158	-1	16	50	13
157	0	16	112	-1
157	6	19	-12	-7
157	3	15	-281	-34
158	-1	15	-190	-41
158	2	17	-111	-11
159	3	15	-49	9
157	3	22	51	18
158	4	23	65	16
157	5	15	117	16
157	2	16	85	14
158	2	21	69	8
158	8	23	47	20
158	13	21	12	9
157	10	19	-66	-28
158	5	16	-112	-54
157	1	17	-117	-57
157	4	18	-159	-51
157	8	13	-55	-36
158	3	13	218	-18
158	3	14	282	-8
158	6	19	52	0
158	4	17	69	-6
157	5	14	91	8
157	5	19	7	32
157	4	19	-5	42
157	5	17	-36	30
158	3	15	-25	23
157	3	16	-83	21
158	3	16	-42	2
157	6	12	35	-1
157	7	10	53	11
157	6	14	31	20
158	12	22	42	22
157	10	21	7	18
158	9	19	-69	15
158	8	20	-47	16
157	6	19	-22	16
158	8	18	24	18
157	11	17	15	14
158	6	17	-25	3
157	3	17	-67	-3
158	7	22	-43	-4
158	3	22	22	-5
158	0	19	29	0
157	1	19	37	-9
157	0	21	57	-2
158	4	23	96	13
158	6	17	31	2
157	5	19	-79	0
158	5	25	-27	-3
158	6	21	46	-6
157	5	21	17	-2
157	3	19	18	1
157	4	22	17	9
157	5	17	24	10
157	3	12	35	14
157	4	15	13	8
157	6	21	-23	8
158	7	19	-27	6
157	5	22	21	-6
157	8	22	-10	-15
158	8	16	-29	-15
157	4	16	-65	-26
159	0	16	-29	-19
157	3	17	87	-3
158	0	14	37	-14
157	-2	15	-24	-15
157	11	26	-23	0
158	19	30	16	2
157	9	22	49	-1
158	5	18	95	8
157	5	11	92	0
157	4	9	2	4
157	7	13	3	12
158	6	13	-9	17
158	3	17	3	16
158	3	15	53	7
158	4	14	49	-6
157	7	23	33	-14
157	8	22	-39	-24
157	5	18	-39	-17
157	2	22	-45	-1
157	0	18	-48	2
157	0	11	-36	6
157	5	13	-86	6
158	10	13	-18	9
157	6	12	124	8
157	3	14	64	10
157	10	19	-122	7
157	19	23	-11	-6
158	12	26	89	-12
158	-5	23	72	-10
157	-24	23	27	-1
158	-25	23	-79	11
158	-16	11	-20	-1
158	-8	7	57	-6
157	1	12	112	-6
158	8	22	93	1
157	23	25	26	7
157	30	24	-78	-14
158	30	24	-132	-13
158	32	19	-26	4
158	35	15	37	7
158	29	15	35	12
157	17	15	-11	13
158	12	17	-41	15
157	8	22	21	18
158	-1	15	86	4
157	-4	19	122	6
158	-2	19	98	21
158	0	22	33	11
157	-3	17	-6	18
157	-5	13	-95	12
157	-6	13	-78	-6
157	-5	13	32	-11
157	-3	18	32	-18
157	-2	25	-20	-13
158	0	30	-67	-4
157	0	26	-11	6
157	4	14	32	4
158	3	12	-4	-2
158	3	18	10	4
157	1	19	24	8
158	-7	16	32	3
157	-9	10	21	7
157	-2	8	-46	15
158	3	15	-131	26
158	9	25	-87	21
157	8	22	-36	3
158	5	17	-56	-9
157	3	17	-24	-16
158	4	22	33	-15
157	7	21	102	-1
157	5	19	107	9
157	11	19	42	-3
158	8	16	32	-1
158	8	15	63	-10
158	8	18	88	-23
157	7	16	64	-19
158	8	19	-32	-20
158	8	18	-54	-18
157	7	20	-48	-4
157	7	23	-59	13
157	5	21	-5	14
159	7	22	48	12
157	9	19	93	8
158	8	18	47	1
158	7	18	-58	7
157	3	18	-54	9
157	4	16	-18	15
158	5	21	51	14
158	7	23	125	-4
157	6	17	84	-8
157	6	19	97	-5
157	5	21	86	7
157	7	19	-2	19
157	7	17	-35	22
158	4	17	-80	20
158	5	14	-52	2
157	5	19	-47	1
157	4	19	-23	3
158	5	20	2	0
157	6	23	-65	-7
158	7	22	-63	-18
157	5	16	-30	-24
158	5	21	77	-13
157	5	18	107	-12
157	4	21	131	-8
157	5	18	46	0
157	3	9	-78	-6
158	2	11	28	13
158	0	14	31	18
158	3	22	-26	9
157	12	24	-55	-3
157	9	19	16	-2
157	3	20	45	1
157	5	19	14	-5
157	8	18	-1	4
158	4	15	44	3
157	3	16	27	-5
157	5	15	-7	-4
158	13	17	8	7
157	12	24	-24	13
158	5	18	27	19
157	3	19	12	23
158	7	19	-2	14
158	2	18	-35	10
157	0	17	-45	4
157	5	17	3	4
158	9	15	47	3
157	9	11	15	3
157	7	12	-91	-1
158	3	11	-32	-15
157	4	22	-55	-17
157	6	29	-137	-10
157	5	27	-56	-6
158	0	19	55	2
157	1	14	97	0
157	1	13	98	-9
157	3	12	110	-5
158	3	16	78	4
157	0	14	52	13
157	1	13	33	22
158	2	17	-7	18
158	1	16	3	3
157	1	14	20	-4
158	4	14	-7	-3
157	9	17	-22	9
158	8	21	-11	12
158	10	21	1	-2
157	12	19	-73	-1
157	15	23	-127	9
157	13	28	-41	7
158	5	19	-24	7
157	-1	15	-42	6
157	-2	12	58	10
158	0	11	188	13
157	7	22	33	11
158	8	24	-12	8
157	9	19	90	-2
157	9	18	39	-22
158	5	15	105	-37
158	5	17	121	-34
157	5	19	28	-27
157	6	15	-80	-17
157	10	22	-49	-19
158	8	22	-6	-10
158	5	14	19	-3
158	0	10	-11	-2
158	1	15	-90	9
158	5	17	-47	9
157	1	21	-55	7
158	1	21	-46	2
157	1	18	-46	-1
157	2	23	-3	-1
157	7	19	14	0
157	7	22	64	10
157	8	19	159	7
157	4	17	12	-1
158	5	22	-99	13
157	7	19	-69	19
157	5	15	-56	10
158	5	21	12	11
157	3	19	107	15
158	0	13	183	11
157	-3	14	173	6
157	-2	13	52	3
158	-1	21	16	7
157	-1	18	36	13
157	2	17	-37	3
157	3	20	-146	1
157	5	19	-82	-6
157	7	17	-12	-6
157	13	18	-27	-3
158	23	19	71	-2
157	24	17	88	3
157	18	25	25	0
157	17	23	25	-4
158	7	11	77	-11
158	7	14	64	1
157	9	24	7	-1
158	9	22	-39	-11
158	5	15	-48	2
157	-3	15	-44	-3
157	0	18	-56	-1
157	1	18	-7	1
157	3	12	4	14
157	3	14	3	10
157	2	15	-3	-10
158	0	12	-42	-5
158	0	16	-95	10
158	1	28	-97	20
157	1	21	-10	10
158	1	17	3	4
158	0	17	-13	-1
158	-2	20	35	0
158	1	26	64	4
158	5	23	0	2
157	9	25	-22	-2
158	8	22	40	0
158	10	18	91	2
158	3	9	138	-7
157	0	12	73	-7
158	0	18	-12	-4
158	-3	15	6	-4
158	-1	19	-30	-2
157	6	22	-36	0
158	10	23	10	3
157	7	21	-19	1
157	5	17	13	-7
157	5	25	20	-6
158	7	22	1	2
158	5	19	8	8
157	3	22	15	20
157	9	21	19	24
157	8	22	10	20
157	8	26	55	10
157	8	18	13	10
158	3	13	-38	13
157	-1	9	-36	10
158	0	7	-59	8
158	5	15	-65	-5
157	4	13	-17	-12
158	3	14	51	-5
158	6	23	95	-7
157	7	16	112	-13
158	7	18	72	-17
157	8	21	58	-27
157	7	16	40	-29
157	4	17	14	-19
158	2	12	-20	-12
158	0	13	-11	2
157	1	18	51	17
158	5	15	18	23
158	4	20	-54	28
158	7	28	-70	23
157	3	21	-22	1
158	1	15	-6	-4
157	5	15	-48	3
158	7	18	-5	5
157	7	22	111	3
158	4	17	157	18
158	5	13	21	31
158	7	10	-133	15
158	10	12	-122	5
158	10	21	-137	-12
157	0	25	-120	-23
158	-1	24	0	-18
158	0	18	40	-13
158	1	21	-2	-14
157	3	21	7	-26
157	9	23	78	-30
158	18	26	122	-44
158	18	21	146	-39
158	10	24	95	0
158	12	22	-11	13
157	8	17	-8	14
158	7	21	56	23
158	10	16	61	18
158	9	17	60	21
157	11	21	10	29
157	7	18	-65	24
157	1	16	-136	16
158	2	17	-179	0
157	1	8	-22	12
158	-1	3	61	19
158	-3	5	43	9
158	0	16	85	20
157	5	22	13	23
158	5	18	11	26
157	7	23	49	28
157	9	22	22	14
157	5	15	30	0
157	3	19	-64	-10
158	7	22	-123	-12
157	7	21	-73	-30
158	4	13	-36	-29
158	3	12	20	-27
158	0	8	63	-38
157	-2	11	72	-22
157	3	21	89	-18
157	5	19	55	-17
157	2	15	90	-13
158	4	17	38	-10
157	6	24	9	6
158	2	21	83	14
157	1	21	-5	19
157	4	21	38	31
157	2	21	55	29
158	5	26	-6	25
157	5	27	-3	13
158	4	25	-18	15
157	3	22	-26	24
157	4	21	-51	21
157	5	19	-36	18
157	5	20	-34	10
157	5	19	-56	0
157	3	15	-77	-8
158	4	17	-53	-14
158	5	15	62	-21
157	2	13	131	-13
157	3	15	-16	-18
157	3	16	-37	-21
158	5	18	73	-7
157	12	17	5	-10
157	4	11	68	-6
157	3	21	68	-1
158	5	24	24	-1
157	1	19	79	11
158	-1	18	-9	13
157	3	13	-53	7
158	8	15	-113	4
158	12	25	-95	4
157	12	22	-28	4
157	7	16	-45	1
158	4	17	-48	9
158	7	18	-28	7
158	5	16	-28	13
157	5	15	-18	14
158	2	8	117	6
157	2	10	209	-7
157	3	16	52	-25
157	3	17	-68	-17
158	3	19	32	-9
158	6	22	18	-11
158	8	16	1	-5
157	4	20	31	-5
157	3	17	23	-4
157	4	14	19	10
157	3	16	20	7
157	3	19	32	12
157	9	25	-38	14
157	10	29	-70	13
158	12	27	-65	12
158	8	25	-38	0
158	3	22	9	-8
158	1	13	59	-6
158	0	15	112	8
158	0	17	93	7
158	-1	14	24	2
158	3	19	-15	2
157	5	18	-6	4
157	8	17	-30	-3
158	8	16	-6	0
158	4	16	-3	4
158	8	23	-18	4
158	18	21	1	6
158	22	18	-37	-1
158	7	21	-17	7
158	-3	21	28	15
157	3	22	49	16
157	4	19	93	10
157	8	18	111	6
157	4	14	72	-4
158	3	15	25	-8
157	5	18	-68	1
158	4	15	-142	-8
157	3	15	-110	-1
157	4	22	-48	14
158	6	18	0	14
157	5	18	18	-1
158	5	17	57	-13
158	5	18	74	-15
157	4	21	24	4
158	2	19	29	25
158	3	18	64	12
158	2	17	42	-7
158	4	15	-26	-20
157	5	22	-95	-30
159	8	19	-64	-27
157	3	15	24	-8
158	1	16	97	-5
158	6	16	100	-17
157	8	16	95	-19
158	5	15	107	-3
158	6	18	-11	10
157	7	21	-74	9
157	5	14	-42	-2
158	2	11	-54	-6
157	3	19	-94	9
157	8	26	-88	9
157	5	18	-36	3
157	3	21	-33	7
157	3	14	-26	4
157	5	13	-18	4
157	4	19	87	5
157	5	18	31	14
158	14	25	-69	10
158	12	21	57	10
157	5	12	117	16
157	3	11	174	10
158	1	17	75	14
158	2	23	23	11
158	3	21	-37	0
157	3	20	-109	0
157	3	21	-15	4
158	2	18	-11	7
157	5	16	107	0
157	2	19	104	-2
157	1	19	68	-2
158	4	19	99	10
157	7	18	11	20
158	4	19	-65	16
157	10	24	-62	3
158	10	19	-36	4
157	7	15	-64	7
157	1	13	-60	6
157	2	19	-67	1
158	8	19	-13	2
158	10	18	22	-2
157	7	20	37	-10
158	4	17	2	-10
158	5	22	-62	-12
157	3	27	-10	-8
157	5	23	27	-4
158	5	19	16	-5
157	3	14	-86	-17
158	4	13	-60	-21
158	0	20	-45	-30
157	-6	21	-30	-34
158	-17	18	121	-8
158	-9	19	184	0
158	0	19	180	4
157	3	14	33	-1
158	7	13	-22	-3
157	7	18	-32	2
158	12	21	-39	-4
158	16	17	33	-10
157	19	16	59	-2
158	19	19	123	13
158	19	18	152	17
157	17	18	138	17
157	16	25	3	22
158	21	18	-66	11
158	13	17	-38	10
158	7	22	-129	23
158	4	24	-165	23
157	3	24	-101	29
157	3	17	-9	29
157	3	17	-2	21
157	3	19	-25	9
158	3	16	-49	-1
158	0	11	-108	-11
157	0	16	-92	-9
157	1	18	-60	3
157	3	18	45	6
158	2	16	149	6
157	0	13	141	2
157	-4	15	97	-4
158	-4	14	70	-2
158	1	6	44	-7
159	1	11	-2	-11
157	1	23	18	-3
157	5	25	6	-6
157	3	26	-55	-7
157	5	23	-81	-6
157	1	13	-104	1
157	5	12	-67	9
158	5	13	97	0
157	4	17	107	4
157	3	20	27	2
157	4	18	165	0
157	4	16	94	3
158	5	20	-57	0
158	8	22	15	6
158	10	19	-18	2
158	5	19	2	2
157	5	15	27	5
157	5	14	36	8
158	8	17	38	9
157	14	24	6	10
157	12	20	36	2
157	3	15	-16	-14
158	0	11	-39	-8
157	0	15	-51	0
157	2	20	-58	-13
157	4	16	34	-17
157	8	22	48	-6
157	7	28	31	-2
158	3	27	72	4
158	1	21	-16	11
157	4	15	-86	-12
157	2	17	-89	-31
157	5	20	-115	-11
158	9	18	-11	8
157	9	17	40	21
157	5	19	31	21
157	5	20	43	18
158	5	19	-21	16
157	5	18	-78	16
158	7	18	-87	37
158	10	19	-59	28
157	7	18	36	0
158	7	14	114	-34
157	7	19	93	-66
157	7	24	95	-73
157	7	21	96	-77
158	4	15	96	-51
158	2	15	97	-21
158	2	13	23	2
158	1	14	31	12
156	3	17	5	12
158	3	21	-46	12
157	3	17	-16	16
158	5	20	-34	24
159	1	18	-17	21
157	0	15	8	20
158	7	17	-3	19
158	7	14	9	21
158	4	13	41	20
158	0	13	13	25
157	7	18	-28	16
158	11	18	51	4
158	15	21	14	10
157	13	24	-56	16
157	1	28	-12	18
158	0	26	-36	17
157	9	26	-46	11
157	13	27	-19	15
158	7	19	24	6
157	5	10	-38	-2
157	9	11	-125	13
157	5	15	-64	4
157	0	13	13	-2
158	0	15	48	2
158	2	15	78	6
157	-2	13	38	8
158	1	18	10	5
157	8	18	99	2
158	5	17	81	-8
157	3	17	51	-1
158	5	17	77	4
157	9	19	97	4
157	4	22	35	4
157	5	22	-122	1
158	5	19	-135	-2
158	3	14	-126	-7
158	1	15	-87	-13
158	3	24	-35	6
157	5	24	-22	11
157	0	13	151	-2
158	-2	15	208	-6
158	-4	14	171	-15
157	-12	13	133	-16
158	-8	22	-10	-19
157	-1	19	-91	-17
158	5	21	-140	-10
157	12	21	-141	-4
158	12	18	-143	-1
158	13	19	-63	8
158	21	15	-3	15
158	23	22	45	12
158	23	22	109	9
157	19	18	56	2
157	15	18	114	-16
157	13	19	34	-25
157	11	19	2	-2
157	7	16	67	4
157	2	12	52	1
158	5	8	68	6
157	3	17	-25	11
157	4	17	13	2
158	3	16	58	-4
159	1	20	78	7
157	0	19	29	3
158	4	19	-22	-1
158	6	18	-13	2
158	3	19	-43	0
158	-2	24	24	0
157	-4	23	-22	2
158	-2	25	-61	4
157	-4	19	-64	4
158	0	15	-49	2
157	1	15	50	-8
157	1	15	23	-5
157	3	22	-19	-7
158	1	20	-1	-2
157	5	21	-40	11
157	3	18	-49	15
157	4	22	-28	29
157	5	22	1	21
158	2	17	33	7
157	1	16	50	14
157	4	19	25	18
158	8	24	0	4
157	9	18	25	-15
157	7	13	28	-30
158	4	13	62	-23
157	5	16	17	-9
157	6	21	-30	-6
158	5	20	15	-4
157	8	17	-35	-4
157	8	14	-48	5
157	8	16	-39	11
157	9	19	-13	8
158	7	16	28	16
157	3	17	41	14
157	5	18	50	10
158	5	21	5	21
157	2	19	2	17
158	0	15	43	13
157	2	21	26	9
157	5	25	-30	3
158	5	17	-29	4
158	2	10	-4	-5
158	0	15	18	-7
158	1	15	-6	-7
157	2	18	51	-12
157	-3	17	66	-14
157	0	15	-3	-5
157	4	21	81	1
157	8	24	90	-3
157	12	26	94	-2
157	11	22	118	5
157	18	26	-13	19
158	21	24	-69	23
157	12	17	-63	16
158	5	15	-35	19
157	3	19	21	23
158	3	19	15	10
158	1	16	-72	-4
158	2	19	-114	-11
158	2	16	23	-21
157	5	18	38	-32
157	7	27	-97	-9
157	11	22	-21	-1
157	5	11	39	-12
158	4	9	65	-22
157	5	15	85	-36
158	6	21	-14	-46
157	9	26	29	-63
158	3	20	23	-49
158	4	24	28	-14
158	7	23	39	7
157	3	21	-26	4
157	5	25	-64	-2
158	3	17	-88	3
159	3	15	-59	7
158	2	15	-72	12
158	3	14	1	22
157	5	9	140	24
157	4	11	111	23
158	4	12	79	27
158	4	11	131	21
158	5	23	-8	23
158	6	21	3	26
157	5	19	23	26
158	4	19	-68	27
158	4	14	-30	23
157	1	14	-75	14
158	1	15	-62	7
157	2	15	-56	18
158	5	22	8	22
157	4	19	67	15
157	4	17	13	19
157	8	21	2	0
157	4	16	24	-6
158	7	21	33	-4
158	5	23	21	-7
157	8	19	20	-3
158	6	20	56	-7
157	2	19	97	-5
158	3	9	107	0
157	1	4	52	3
157	5	14	-79	-10
158	8	25	-47	-8
157	3	21	-6	-8
157	5	15	-142	-16
157	7	21	-106	-8
158	3	16	91	2
158	4	16	91	8
157	9	22	-86	3
158	7	27	-142	-6
158	9	25	-97	1
157	13	18	-98	4
158	14	16	-54	-2
158	7	17	111	5
157	1	15	156	6
157	0	16	49	4
157	-3	15	74	5
157	-1	15	105	7
157	5	14	61	-1
158	5	13	81	-8
157	7	18	96	-6
158	9	24	70	-4
157	8	25	4	-11
157	4	21	-60	-14
157	4	19	-108	-11
158	5	16	-137	-11
157	5	19	0	-2
158	3	16	159	14
158	1	13	38	23
158	5	15	-10	37
158	9	24	57	28
157	7	25	63	-2
158	3	11	111	-20
158	-1	12	43	-11
158	4	11	-94	-2
157	5	14	-210	-6
158	4	22	-173	-6
158	5	19	-39	-12
157	8	19	42	-18
157	6	17	-15	-24
157	2	16	-31	-23
158	5	19	112	-17
158	6	23	43	-11
158	6	21	70	-2
157	7	22	142	7
157	2	19	79	10
157	3	17	58	12
158	5	21	16	13
158	6	19	24	13
158	8	18	-9	22
157	7	19	-13	19
157	0	17	-39	18
157	3	16	-78	21
158	3	17	-43	23
157	1	17	-4	22
158	4	19	-3	23
157	5	23	24	16
157	4	20	57	-1
159	1	15	20	-12
158	3	18	0	-6
157	7	20	-32	-2
157	8	18	-9	-1
157	9	18	-15	0
158	5	19	-36	-4
157	3	17	3	-7
158	0	13	-15	-25
157	1	15	-40	-25
158	3	18	-16	-14
158	2	16	15	-4
158	7	19	17	3
158	15	19	46	-1
157	8	18	21	10
158	3	21	-23	15
158	5	22	-27	10
157	8	25	-36	7
157	11	24	61	10
158	10	21	77	4
158	7	18	-54	0
157	6	17	-44	4
157	6	18	-43	9
157	8	19	-110	19
157	3	10	-37	19
157	3	2	239	19
158	4	6	411	9
158	3	16	117	-16
157	8	24	8	-31
157	7	23	48	-42
157	4	19	-77	-46
158	3	22	-66	-41
158	3	18	-34	-15
157	0	14	25	5
157	0	16	3	16
158	5	25	-46	29
157	8	22	-51	26
157	5	19	-69	22
157	2	25	-71	22
157	4	18	-53	23
157	5	16	-40	27
157	8	16	-88	33
157	10	17	-25	11
158	4	15	33	-11
157	2	17	57	-26
157	1	19	116	-47
158	4	25	36	-29
157	5	22	15	-7
158	3	19	43	4
157	3	22	40	-5
158	7	15	64	-19
158	8	13	30	-24
158	4	11	-40	-7
158	6	15	-34	10
157	7	18	-30	5
157	5	23	-66	-3
157	9	21	-10	4
158	8	21	6	10
158	7	18	128	8
157	4	14	132	8
157	1	17	-24	6
158	-5	19	-33	9
157	-8	19	-1	7
158	-2	19	52	15
158	-1	15	-5	11
157	5	14	6	2
157	2	15	-96	-2
157	-1	14	-52	-7
158	10	19	113	2
157	21	17	64	10
158	23	20	33	25
158	22	31	-107	31
158	20	28	-10	19
157	11	21	31	10
158	11	23	43	2
158	12	17	83	0
158	5	18	10	7
158	7	28	13	15
158	5	21	-47	8
157	0	15	10	-1
157	4	13	-6	2
158	1	15	-19	-5
158	1	15	31	-7
158	2	9	21	6
158	2	16	-73	10
158	1	15	-46	-1
157	-2	13	37	-16
157	1	20	96	-13
157	2	16	126	-2
157	1	15	-27	-3
157	3	18	-2	-21
158	1	27	-51	-17
157	3	22	-45	-9
158	5	18	-24	-6
157	9	13	-70	-12
158	8	16	-16	-7
158	8	22	-52	8
157	7	21	-46	8
158	3	21	-79	2
158	7	19	-74	3
158	7	17	-38	10
157	1	9	87	2
157	2	10	180	7
157	-1	14	70	11
158	0	27	103	12
158	3	23	104	18
159	5	17	-26	20
158	5	18	15	14
158	1	14	35	-11
157	-1	15	58	-29
158	0	14	88	-33
157	1	14	65	-43
158	2	15	83	-34
157	8	24	18	-10
157	11	26	-46	4
157	9	23	-47	14
157	19	25	-67	14
157	15	15	-82	11
157	3	11	-75	8
157	8	19	-45	8
157	8	21	46	17
158	5	16	39	22
158	5	17	1	12
158	4	19	52	15
158	10	21	28	24
157	11	14	-33	21
158	5	16	-26	24
158	3	20	-13	13
157	5	17	1	2
157	3	14	94	-1
158	-2	10	118	-5
157	2	12	10	1
158	5	21	-35	-9
159	3	19	-15	-23
157	3	23	-118	-26
158	4	24	-137	-28
158	7	23	-64	-9
158	9	27	-37	2
158	4	21	113	8
157	3	15	221	14
158	3	14	65	17
157	4	19	-67	22
158	7	19	31	23
158	4	15	-14	9
158	2	14	-23	-14
158	0	18	-8	-23
157	7	29	49	-23
158	10	21	12	-10
158	4	15	-146	12
158	12	19	-19	15
157	16	15	19	17
157	5	14	97	17
157	0	17	166	11
157	2	11	210	3
157	0	15	75	-9
158	-1	18	-90	-15
158	2	19	-71	-4
158	4	17	-133	-1
157	4	16	-74	-6
157	3	19	-95	1
157	3	22	-77	9
158	2	23	-50	10
157	4	21	7	7
158	5	13	105	6
157	3	10	68	-7
158	3	13	134	-21
157	0	12	111	-23
158	5	21	36	-23
157	10	25	-43	-13
158	8	22	-93	-3
158	7	19	-52	2
158	2	14	-6	-5
157	3	18	29	-11
157	10	22	31	-1
157	8	22	37	-7
157	8	23	-31	-16
158	7	23	-22	-5
158	7	22	50	3
157	7	18	5	8
157	5	15	56	23
157	5	17	49	18
158	5	17	-43	14
158	4	20	22	8
157	1	19	29	9
157	1	13	-19	10
158	4	21	0	-2
158	3	20	54	15
158	6	22	62	20
158	5	19	21	10
157	4	7	18	9
157	-1	14	-27	8
157	-10	21	-26	10
157	-11	15	0	13
158	-5	19	-12	20
158	0	19	-13	16
157	3	14	-26	10
158	9	16	-49	14
156	16	24	-52	11
158	24	23	-16	-5
158	25	18	13	-3
158	24	20	42	-5
157	23	16	53	-7
158	17	18	32	-3
157	12	15	2	3
158	10	10	-23	10
158	5	13	-4	8
157	5	21	17	17
158	5	21	-56	16
158	3	19	-85	15
158	2	18	50	1
158	1	20	124	-6
157	1	22	50	-10
157	-1	21	27	-33
157	0	23	47	-33
157	0	14	17	-10
158	-4	13	26	7
157	-1	14	35	9
158	-3	14	4	0
157	-1	19	-38	-1
158	2	19	-49	-10
158	1	17	-12	-16
157	3	18	-32	-22
158	1	17	-41	-31
157	-3	15	-77	-43
158	-4	12	-43	-53
158	8	14	91	-43
157	12	27	52	-31
157	7	21	21	-7
158	9	19	60	16
158	5	17	78	26
158	2	15	155	27
158	6	16	166	21
158	10	18	3	32
158	13	23	-63	30
158	7	19	33	19
158	4	23	-33	27
157	5	27	-41	29
158	6	22	-6	22
158	0	17	-11	3
158	3	9	8	11
158	7	13	-62	18
158	5	22	-55	0
158	5	19	-63	0
158	5	17	-47	-8
157	4	16	17	-5
157	2	13	66	3
158	5	24	87	3
158	8	22	16	7
158	7	19	7	2
158	7	17	-16	-4
157	6	11	21	-3
158	3	16	23	3
157	3	19	-118	0
157	1	22	-64	7
158	0	24	13	18
158	5	22	25	8
158	5	19	94	0
158	5	21	10	11
158	5	19	-36	10
157	4	20	-38	6
158	4	27	-87	10
158	7	19	2	13
158	7	16	83	-1
158	4	6	86	-22
158	0	1	45	-30
158	5	17	-65	-11
158	7	21	-79	3
158	6	19	22	3
158	7	21	55	0
157	8	21	46	-9
157	5	16	31	-2
157	5	18	17	3
157	10	22	10	-1
157	5	18	37	3
157	3	20	86	12
158	7	19	60	10
157	5	13	8	-5
158	5	22	-33	-16
157	4	24	-5	-28
157	4	26	-80	-19
158	6	24	-55	-1
157	8	8	13	-5
158	5	7	7	-8
157	4	15	133	-4
158	7	20	35	2
158	8	24	19	5
158	7	23	33	3
157	9	22	-30	3
157	10	21	1	-2
157	8	20	-35	0
158	4	17	-34	13
158	5	18	-49	23
157	5	19	-44	29
157	3	20	-33	32
157	5	21	-33	29
158	2	20	-12	26
158	1	19	69	14
157	3	23	188	21
157	2	19	197	21
157	4	15	24	1
157	3	15	-53	-3
158	4	15	-9	-33
157	3	15	-104	-51
158	4	16	-62	-49
157	7	16	-10	-48
157	4	15	15	-30
158	5	13	68	-12
157	3	14	19	0
158	1	16	-32	6
158	5	16	-17	0
158	5	16	60	10
157	7	21	49	25
157	6	22	36	33
158	7	24	24	34
157	1	25	-17	26
157	4	23	-55	16
159	13	24	-78	4
158	11	19	-102	-7
158	5	15	-67	-19
158	7	16	43	-30
158	2	15	59	-8
158	3	17	68	3
157	5	14	56	-4
157	3	15	64	-7
157	1	14	78	-13
157	4	15	-55	4
158	4	17	-96	18
157	1	15	-19	15
158	2	19	-10	11
158	3	20	-22	18
157	5	19	10	21
157	6	19	43	7
158	3	17	27	-2
157	7	24	82	2
158	11	17	143	-4
157	4	12	51	-27
158	-3	16	35	-18
157	3	17	19	-2
158	7	22	-40	2
157	5	17	-40	10
157	3	9	-84	15
158	5	16	-60	8
157	5	17	-35	7
158	9	19	11	8
157	5	20	24	12
158	1	21	-55	18
158	3	21	68	10
158	5	15	144	-13
157	5	15	37	-21
158	0	11	62	-23
157	1	13	68	-12
158	5	24	-19	24
158	8	25	-5	28
158	7	16	-40	12
158	1	17	-123	0
159	4	24	-137	-2
158	4	27	-89	-1
158	4	22	52	-15
157	4	12	143	-19
158	5	15	72	-17
157	5	19	-30	-21
157	5	22	-35	-22
158	1	19	-10	-7
157	-7	21	2	4
158	-6	20	-10	11
157	5	19	-15	10
158	1	23	-16	11
157	4	19	-30	14
157	7	22	-69	14
158	4	17	-110	20
158	10	12	12	16
157	23	15	80	11
157	27	18	33	6
158	20	17	138	0
158	16	23	144	7
157	13	24	54	2
157	13	20	86	0
158	13	16	45	2
157	3	14	51	3
158	1	14	10	14
158	0	15	-34	-1
157	0	15	-36	-13
159	5	14	-37	-16
157	3	14	35	-7
158	3	12	82	0
157	0	15	122	-8
159	-3	17	-11	-2
157	-1	14	-61	14
158	4	20	-36	16
157	4	19	-28	13
157	3	21	-11	2
158	7	28	-28	-7
158	0	21	42	-7
157	1	13	42	-8
158	3	15	28	-1
157	3	24	-10	-5
157	4	22	-19	-4
158	4	21	-74	6
158	4	17	-87	2
157	1	14	18	4
158	1	11	9	19
157	3	9	6	6
157	7	14	-35	-17
158	5	14	17	-4
158	5	18	48	11
157	6	19	-25	-4
158	5	20	-26	-13
158	5	19	-13	-23
158	4	24	93	-11
157	7	29	7	2
157	5	21	-74	-4
158	5	14	23	4
157	7	9	-30	-5
159	3	15	-54	-2
158	5	21	-107	4
157	4	19	-85	16
157	1	21	-15	30
158	3	19	88	31
157	5	19	265	38
157	11	20	217	20
158	8	23	98	-7
158	4	15	21	-21
158	1	13	-2	-28
158	7	20	-15	-13
158	5	17	-83	-7
158	5	24	-68	-9
157	7	24	-27	-10
157	5	19	-36	-15
158	5	18	-25	-19
159	5	19	9	-21
158	9	22	-2	-9
157	7	19	-33	3
158	4	24	2	13
158	8	24	38	14
158	4	18	24	16
159	3	13	9	19
158	3	13	66	17
158	0	11	111	22
158	4	16	43	15
157	5	16	24	9
157	2	12	66	3
157	5	15	89	3
157	-1	9	103	4
157	2	12	26	4
157	4	17	-47	13
158	10	32	-96	17
157	11	29	-46	16
157	7	18	52	11
157	7	24	-55	14
158	11	26	-80	21
158	20	28	-33	23
158	19	21	-18	14
158	8	14	-2	3
158	4	11	-4	-5
158	4	15	43	-15
158	5	12	60	-39
157	5	8	69	-50
158	1	17	-48	-47
158	1	17	-171	-45
157	3	17	-97	-14
157	4	19	12	9
157	4	19	21	13
158	5	20	6	14
157	6	24	-12	13
157	3	23	-15	8
159	3	25	15	-1
158	1	19	-5	-4
158	3	17	-22	-11
158	7	19	-59	-14
158	10	18	-12	0
157	5	17	59	16
158	5	18	41	26
158	5	22	49	22
158	3	17	35	18
158	7	19	126	11
157	9	14	170	-11
158	5	9	24	-17
157	3	10	66	-17
158	-2	12	18	-19
158	0	23	-26	-13
157	0	21	51	-2
158	1	20	25	3
158	1	20	7	-2
158	7	26	-52	7
157	9	25	-53	11
159	4	17	-107	6
158	3	19	-112	4
157	3	17	-12	7
158	0	15	4	8
157	4	17	18	15
158	3	18	50	16
159	1	15	99	13
158	0	19	66	15
157	-8	25	50	16
157	-17	25	-12	16
158	-7	17	-144	14
158	-3	10	-75	5
157	4	14	43	-9
157	9	9	82	-8
158	8	8	129	-3
157	15	21	52	-8
157	24	20	-95	-21
158	29	20	-16	-19
158	27	18	79	-7
158	23	18	60	-18
158	18	16	-6	-9
157	14	13	7	11
157	13	14	72	6
157	3	20	23	0
158	6	24	46	2
157	7	19	1	-4
158	1	19	-85	-3
158	1	21	-32	7
158	-4	24	37	8
157	-2	26	-24	1
157	1	22	-59	-8
158	-1	22	26	0
157	0	19	9	11
158	2	15	-26	10
157	3	13	-42	9
157	3	14	-17	7
157	9	21	-17	15
158	9	21	-14	18
158	5	18	0	18
158	2	15	-37	12
158	5	13	-41	4
158	3	13	-69	-2
157	3	15	21	-4
158	1	13	94	6
157	0	14	37	9
158	0	19	57	11
158	1	21	53	13
157	4	19	38	-1
157	1	16	61	-8
158	0	13	90	-7
157	1	8	122	0
158	2	11	-4	9
158	5	24	-134	0
157	10	22	-80	-10
158	16	19	-35	6
157	14	20	25	13
157	7	15	154	3
158	3	16	64	-4
158	5	22	-148	-32
158	5	19	-77	-47
158	5	16	15	-48
158	4	17	30	-43
158	3	17	33	-18
158	1	19	-21	-4
158	7	26	-44	-4
157	4	25	-97	9
158	5	24	-33	19
157	3	23	2	21
157	7	18	-24	18
158	8	19	46	24
158	5	21	138	15
157	3	13	185	-12
158	0	5	101	-3
158	2	11	2	3
157	1	15	-81	17
157	2	15	-66	33
157	1	16	22	30
158	1	19	25	31
157	10	22	39	26
157	13	22	41	6
158	10	24	59	-15
158	8	23	-1	-18
157	3	21	-89	-21
158	7	23	-70	-11
157	11	27	-45	-5
158	8	17	29	-4
157	5	17	90	-6
158	4	22	127	2
157	5	18	48	13
157	11	19	-97	7
158	8	23	-71	5
158	2	15	-27	0
158	1	15	8	2
157	-2	16	48	4
157	-3	14	58	12
157	2	20	52	14
158	4	11	0	11
157	1	14	-4	4
158	2	15	-20	-1
158	1	14	-10	-1
158	-3	18	-7	-2
158	-11	17	-51	0
157	-11	20	-15	6
157	0	21	17	7
157	2	17	58	9
158	5	18	46	7
157	12	21	-11	-2
157	11	13	-38	-6
157	18	17	-83	-6
157	24	25	-98	-16
157	23	22	-95	-18
158	20	24	-56	-8
158	20	28	-32	2
157	17	26	16	13
158	12	20	144	11
158	5	21	190	7
158	2	15	80	-5
157	3	16	24	-24
158	1	11	40	-19
158	0	12	42	-8
158	0	23	34	-2
158	3	22	46	9
157	3	15	172	4
157	-2	11	128	8
158	3	21	15	16
158	2	19	71	10
157	-1	15	-51	6
158	0	17	-112	0
158	1	24	-54	-5
158	2	18	-164	-12
157	1	16	-172	-11
158	3	24	-158	7
157	3	17	-73	13
158	5	13	4	-5
158	0	11	42	-9
157	3	19	125	14
157	7	22	47	12
158	8	14	0	13
157	8	17	19	12
158	10	18	107	-3
157	8	16	179	-2
158	5	17	118	-9
158	8	23	-38	-17
158	6	21	-106	-21
157	4	16	-87	-6
157	5	22	-114	9
158	5	21	-20	7
158	7	25	43	14
158	8	23	61	4
157	5	14	99	0
158	-1	10	56	1
158	5	13	-61	4
158	10	24	-53	7
158	8	21	52	10
158	4	19	19	15
158	2	11	23	14
157	-1	2	41	21
158	0	9	53	21
157	3	14	-22	24
158	6	19	-51	23
159	8	18	7	18
158	9	18	-58	13
158	8	19	-43	6
157	8	16	-25	-7
158	11	19	29	-23
158	10	19	-19	-33
158	5	21	-115	-42
157	1	17	33	-51
158	0	11	144	-35
158	2	14	104	-22
157	1	17	38	-17
158	8	23	58	-6
158	11	18	85	-12
158	9	16	96	-5
158	1	17	63	2
158	2	21	-16	-2
158	8	26	2	7
158	9	21	-3	15
157	6	19	-54	15
157	6	18	-48	13
158	8	23	-54	12
158	5	25	-54	15
158	4	23	52	25
158	3	23	168	27
158	1	17	45	21
158	3	14	-146	18
158	2	11	-8	25
157	3	14	-15	23
157	5	11	-89	9
158	5	15	-20	0
157	7	23	-51	-11
157	5	25	-26	-20
157	3	22	-46	-36
158	3	15	-26	-33
157	3	14	-24	-7
158	4	12	-35	-1
158	1	17	-23	-4
158	2	20	-23	2
157	3	24	-15	6
158	9	24	-45	3
157	5	16	-27	1
158	2	14	121	11
158	7	13	209	2
157	6	21	180	1
158	9	29	144	8
157	8	23	53	17
157	3	20	78	19
157	7	21	18	11
157	3	14	-15	9
157	1	14	5	8
157	4	19	-39	14
157	9	21	-20	18
157	6	23	-61	19
157	7	19	-48	10
157	3	18	-62	-7
158	3	17	-44	-21
157	3	10	54	-12
157	4	11	49	-2
158	4	17	40	-22
157	6	20	36	-28
158	12	23	-64	-32
157	7	21	-56	-33
157	7	25	6	-26
157	3	16	2	-14
157	0	11	57	6
157	3	14	45	6
157	1	11	33	10
158	0	12	22	5
158	-1	13	-29	0
157	2	21	-93	3
158	9	28	-117	3
158	6	25	-49	7
158	-8	23	-48	8
157	-13	22	21	7
158	-7	18	104	13
157	0	17	111	15
158	3	17	118	16
158	9	17	92	11
157	12	16	55	6
157	16	17	9	14
158	24	21	41	19
158	25	18	67	10
157	24	18	30	9
158	19	18	-12	16
158	11	21	-39	13
158	10	18	-38	12
157	10	17	-71	10
157	1	19	-125	4
157	4	23	-86	7
158	5	22	3	8
158	1	17	2	6
157	0	17	8	0
158	3	20	62	-12
157	3	17	-1	-14
157	4	15	-42	-22
158	1	9	65	-26
158	-3	9	151	-21
158	1	19	55	-20
158	4	23	-48	-20
157	2	15	25	-13
157	0	18	11	-2
157	1	20	-34	4
158	-1	22	-42	12
158	1	17	-116	-1
157	2	10	-155	-1
157	1	7	-78	-7
159	5	17	43	0
157	8	22	53	7
157	2	17	167	-4
158	-2	14	280	-15
158	1	12	136	-5
158	0	18	29	15
157	3	22	12	12
157	4	21	-63	11
158	3	21	-55	3
157	5	24	-41	16
158	9	24	-31	18
158	16	22	-6	18
158	12	26	-9	16
158	11	24	30	16
158	8	25	-15	26
157	5	23	-70	28
158	8	22	-45	31
157	8	13	-27	15
158	4	6	-1	22
158	8	11	21	21
158	7	17	2	8
157	5	19	0	4
157	4	14	-35	2
157	5	15	-55	-17
158	9	24	5	-39
158	5	18	61	-54
158	5	15	126	-58
157	7	11	81	-48
158	8	19	1	-25
158	1	24	101	-6
159	-1	19	214	-13
157	-2	21	117	-5
157	-2	23	-31	11
157	5	19	-4	15
157	5	9	-55	10
158	3	18	-90	8
157	4	26	-33	4
157	3	21	-25	-1
157	1	18	-17	7
157	5	19	-91	11
157	11	22	-71	21
157	9	17	33	12
157	3	18	40	11
158	5	18	0	10
159	4	11	5	3
158	0	11	-28	10
158	3	14	-95	9
158	4	17	-105	5
157	6	15	45	-7
158	7	15	151	-18
157	10	21	-44	-3
157	8	21	2	16
158	5	17	127	16
158	5	17	17	15
158	3	15	85	10
158	0	13	25	-6
158	0	12	-35	-20
158	0	18	-12	-11
158	4	18	-40	-8
158	6	19	6	0
158	8	26	31	13
158	9	23	82	16
158	8	21	70	27
158	5	17	-15	29
158	5	13	-73	30
158	5	21	-89	9
157	7	24	-113	-7
158	5	17	-148	-20
158	5	18	-125	-34
158	6	19	-16	-27
157	5	21	155	-21
158	6	21	191	-7
157	6	18	188	3
157	5	18	31	4
158	7	20	-109	3
157	5	17	20	-3
157	3	11	8	-22
158	-3	21	2	-30
158	-13	25	29	-22
157	-10	21	45	-13
157	-3	22	63	-2
157	3	17	64	-1
157	11	19	79	2
158	12	18	14	7
157	15	18	-14	16
158	20	18	-34	29
157	22	12	-6	28
158	21	11	2	19
157	15	14	5	8
158	8	15	60	14
157	11	19	138	22
157	8	18	130	20
157	1	18	24	13
158	-2	17	4	18
158	-4	13	-73	12
158	0	23	-126	-5
158	3	28	-81	-10
157	3	25	-71	-14
158	12	23	-27	-4
158	15	21	33	0
158	4	17	7	-7
157	1	17	-44	2
157	7	20	-65	4
157	4	14	-116	0
158	3	18	-92	6
158	3	19	-32	7
158	0	11	-69	-10
157	0	15	66	-6
157	3	14	245	-10
158	1	11	137	-30
158	1	17	13	-24
158	0	13	5	-18
157	0	13	13	-1
158	3	21	91	7
158	5	19	122	11
157	4	17	69	12
158	5	21	-29	8
157	3	14	-68	-2
158	1	14	-22	-10
157	3	17	38	-10
158	1	19	37	-10
157	2	21	16	3
157	5	18	-17	4
158	5	18	-78	-3
158	5	21	-54	11
158	3	20	-58	17
157	6	19	-56	16
158	10	23	-35	14
157	7	25	-36	11
158	7	25	-53	4
157	6	20	-66	8
158	10	18	-35	9
157	8	18	8	7
157	0	13	46	6
158	3	15	31	-1
158	0	16	-22	2
158	2	18	10	6
157	8	22	66	4
157	11	22	68	10
158	8	22	126	11
157	5	19	218	8
158	3	17	143	10
157	2	14	-63	7
158	3	22	-19	2
158	4	25	44	0
158	5	18	48	-8
158	3	17	-2	-13
157	2	14	-33	-19
158	-3	11	122	-25
157	0	21	34	-14
158	5	22	-39	-1
157	5	22	-45	-2
158	8	24	-79	8
158	3	17	-64	14
157	6	18	-48	12
158	7	19	-6	13
157	7	24	4	21
158	11	24	32	26
157	11	18	-21	21
158	8	18	-47	25
158	7	21	-23	26
158	5	20	59	9
158	4	11	122	-9
157	4	18	65	-18
158	5	22	-60	-39
157	3	16	-45	-54
158	1	14	18	-48
158	3	13	-50	-48
158	5	19	-51	-45
158	10	19	-59	-47
158	8	17	33	-34
157	5	17	7	-18
157	8	11	-61	-12
157	5	11	-2	19
158	7	19	-26	35
157	5	21	8	34
158	3	17	98	27
157	0	24	164	28
157	2	18	40	17
158	5	17	-6	10
158	7	19	46	7
157	8	17	6	7
157	7	16	-3	18
157	7	15	15	29
158	7	18	46	31
157	5	16	16	20
157	4	14	3	22
157	3	13	-20	11
158	1	17	-13	7
158	4	18	-39	18
158	5	18	-47	21
157	3	21	-6	14
157	5	17	-38	4
157	5	17	-1	1
157	4	17	-1	-11
158	3	15	5	-22
158	4	18	29	-9
158	3	16	42	11
157	5	15	28	8
157	8	16	-42	16
157	5	19	3	12
157	4	20	54	10
158	3	24	78	13
157	5	23	78	-3
157	1	21	30	-15
157	1	19	20	-31
158	6	19	-36	-38
158	7	24	-49	-39
157	4	20	-14	-13
158	4	13	-21	2
158	1	9	-68	2
158	3	17	-90	2
157	3	19	-33	2
158	4	16	-17	4
157	6	18	4	7
158	6	17	44	10
158	4	18	52	2
157	7	24	78	-6
158	7	16	111	3
157	4	14	155	7
157	0	13	174	8
157	-3	12	91	19
158	0	24	-30	13
157	4	24	-86	10
158	8	25	-100	8
158	8	23	-67	2
158	5	18	31	1
158	15	24	-16	-12
157	16	20	-113	-28
158	4	21	25	-23
157	4	18	125	-2
157	3	15	56	-2
157	5	19	10	-5
157	5	17	19	15
158	6	16	-24	13
157	5	15	-93	12
158	5	12	-124	9
157	10	14	-120	-2
158	8	19	-19	-2
158	8	17	50	11
157	9	24	29	7
157	10	18	138	-7
157	5	14	188	-18
157	0	14	-21	-35
158	-3	10	-56	-25
158	1	19	-27	-12
158	4	19	-96	-2
158	3	19	-67	4
157	4	22	-55	6
157	7	20	61	6
157	3	16	126	6
157	2	17	103	17
157	6	22	82	25
157	7	22	-68	36
157	10	23	-67	37
158	8	19	13	37
159	5	24	27	26
158	4	18	55	2
157	5	11	-14	-4
157	7	11	-62	-21
158	3	14	-29	-26
157	8	19	30	-29
158	1	10	80	-19
157	-1	18	-5	-10
157	1	23	-115	-5
158	1	18	-3	2
157	3	19	37	8
158	5	16	72	20
157	5	21	90	19
157	5	21	-49	31
158	4	18	0	16
157	5	22	-2	4
157	8	17	32	-6
158	5	18	127	-25
158	4	19	139	-25
157	3	19	56	-10
158	6	22	26	10
158	3	19	4	6
157	5	24	-126	2
158	7	25	-109	-4
157	3	27	-51	-10
158	3	24	10	-9
158	6	13	-42	9
157	9	10	-113	-6
158	5	15	-71	-17
157	6	18	-62	-1
158	4	10	-5	3
157	4	16	55	13
157	4	19	50	24
158	4	16	72	24
157	4	14	82	10
157	3	13	59	0
158	7	15	42	-1
157	3	15	13	-6
158	5	19	-12	3
158	4	18	-31	0
157	5	19	-7	-1
158	4	15	19	-1
157	2	13	18	2
157	5	20	-47	14
157	4	22	-68	15
158	9	18	15	33
157	13	14	215	34
157	13	14	293	21
158	10	19	-4	6
157	2	21	-55	-6
158	-2	17	-51	-15
157	-3	15	-110	-37
157	3	17	-22	-29
157	9	24	-33	-17
157	5	21	36	-34
158	-9	17	72	-24
157	-14	17	31	-13
158	-7	19	-39	-19
157	-1	23	-47	-10
158	2	22	6	0
157	7	19	6	-1
157	10	13	31	-5
158	13	11	49	2
158	22	15	70	2
158	30	21	46	4
158	28	22	-28	19
158	24	15	-63	17
158	17	16	-69	15
158	12	14	-19	10
158	10	9	-28	14
158	3	16	-26	9
157	2	19	0	7
158	2	22	-8	6
157	-3	24	-3	4
158	-2	23	-36	9
157	1	19	-29	9
158	3	19	-28	14
157	2	21	8	4
158	4	16	41	-1
158	1	17	16	4
157	0	16	56	2
158	1	19	128	3
158	0	19	165	2
158	1	18	98	5
157	1	22	8	-4
157	-2	22	-41	-2
158	-1	16	-120	7
158	2	19	-101	3
157	5	22	-63	11
158	4	14	-90	14
158	11	17	-27	-2
157	11	19	15	-10
157	7	12	90	-14
157	7	16	92	-5
158	10	19	-40	2
158	8	19	-1	2
157	5	17	31	7
157	5	18	86	-9
158	4	19	225	-12
157	8	22	201	-4
157	7	25	39	4
158	9	21	-84	20
158	11	22	-89	8
158	5	15	-42	-12
158	4	18	-10	-2
157	4	17	47	7
158	3	17	75	6
157	4	10	4	3
157	3	10	-11	7
157	4	21	-9	9
157	1	17	-125	-2
157	1	21	-148	-22
158	2	19	-88	-26
158	1	11	-61	-19
158	1	19	45	-19
158	4	27	23	-7
158	7	26	-90	3
157	6	24	-32	8
157	6	21	-3	-5
157	3	16	12	-18
157	2	16	46	-14
157	2	18	54	1
157	1	11	66	1
157	4	16	44	-1
158	4	18	0	-4
157	6	14	-59	-3
158	5	19	-12	3
158	7	21	21	11
158	8	19	52	21
157	9	15	197	10
158	7	19	226	8
157	11	25	72	17
157	7	19	19	20
157	7	22	56	19
157	5	19	-20	23
157	6	14	-61	23
158	7	16	-82	16
158	4	19	-75	11
157	3	23	-68	0
157	4	21	-23	-1
158	6	24	66	0
158	3	23	43	-8
158	3	18	24	-17
158	4	18	35	-20
158	5	15	18	-5
157	12	19	-75	7
157	14	17	-29	14
158	10	16	27	25
157	3	18	-68	30
157	3	22	-48	36
158	1	21	-40	29
157	3	19	-16	3
158	4	19	-12	-23
158	4	14	-42	-48
158	1	13	-31	-50
157	4	19	7	-34
158	5	18	66	-26
158	3	17	34	-15
157	2	13	2	-10
158	2	14	-8	-1
157	4	17	40	11
157	3	16	20	13
157	8	24	23	9
157	8	17	137	5
158	4	13	100	6
158	3	19	13	9
157	6	18	10	8
157	6	22	9	16
157	6	18	7	19
157	-2	11	42	7
158	-18	10	58	3
157	-17	12	57	-11
158	-10	12	-8	-11
157	-5	21	-52	3
158	8	20	-67	4
157	9	15	-42	8
158	9	21	40	9
158	16	25	5	7
159	33	26	-64	9
157	33	19	-24	-3
158	21	21	-4	-11
157	21	22	-22	-2
158	16	15	-8	6
157	15	18	-9	1
158	10	21	-29	-14
158	3	23	-12	-7
157	4	21	97	-3
158	1	15	75	-2
158	0	21	-48	13
158	-2	18	-16	10
157	-5	15	56	13
157	0	25	-1	20
157	1	24	-61	11
158	-1	25	-22	16
157	1	21	-9	14
158	0	17	-36	3
157	5	15	27	-4
157	5	11	157	-1
157	4	17	136	-4
158	2	18	11	-4
157	0	13	69	0
158	3	17	59	1
157	5	19	20	-6
157	0	15	78	-8
157	0	15	-4	-5
158	1	16	-28	-5
158	1	18	-69	-7
157	2	17	-28	-12
158	1	19	25	-15
158	5	24	-2	-14
158	6	22	-10	-4
158	7	15	-49	-6
158	5	14	-67	-9
158	5	18	-98	2
157	8	14	-33	0
158	7	15	-41	-1
157	6	16	-67	7
158	3	15	-3	17
158	3	19	-20	14
158	2	17	-29	13
157	6	21	-17	14
158	8	19	26	-2
158	10	17	87	-13
157	9	15	190	-6
157	4	17	174	11
157	0	20	-35	10
158	1	21	-123	5
158	6	16	-48	8
158	8	19	-9	10
158	11	25	52	15
157	4	18	155	17
159	3	15	172	16
157	5	14	49	2
157	1	15	-12	-11
158	0	15	-7	-9
157	5	19	-87	-5
158	5	19	-99	5
158	4	19	-55	9
159	7	21	-6	10
158	7	21	32	10
157	8	22	96	9
158	18	24	93	1
158	16	17	-23	-12
158	3	13	-57	-7
157	4	14	-40	-6
158	8	18	63	-5
158	3	22	33	7
157	6	18	-105	4
158	7	18	-112	-11
158	7	17	-100	-15
158	3	19	-65	-7
158	3	19	30	-9
158	1	14	149	-4
157	2	18	68	0
158	3	17	78	0
158	2	19	159	0
157	3	19	10	11
158	-9	21	-54	21
157	-15	24	17	10
158	-10	26	65	4
158	-3	24	33	8
157	3	11	43	12
158	8	7	-1	4
156	13	22	-97	-4
158	19	22	-13	-7
157	25	21	21	-11
157	28	24	-19	-5
158	24	15	-18	-5
158	19	17	-43	-11
158	15	17	-35	-6
157	12	16	-31	-7
157	15	21	21	-7
157	23	18	71	6
158	27	15	29	-4
158	13	16	40	2
158	0	14	64	11
158	-9	16	33	13
157	-17	21	-3	17
158	-22	18	-61	10
158	-52	13	-63	14
158	-70	18	-19	17
157	-28	24	-19	16
157	29	26	33	14
157	44	21	28	11
157	61	17	-31	9
158	34	10	-36	4
157	4	3	-10	-16
158	-8	8	-3	-26
157	8	13	12	-22
157	15	16	52	-12
157	8	26	-16	-3
157	27	26	14	7
157	5	22	74	12
157	-11	28	25	-4
157	-17	27	-10	-7
158	-12	23	-62	-4
158	16	21	-74	-2
158	71	21	-39	-8
158	78	19	13	0
158	29	18	52	12
158	43	11	91	-1
157	21	14	122	4
158	-4	18	120	14
157	-77	9	43	8
157	-140	17	-43	4
158	-70	25	3	-3
157	-19	19	29	-2
157	-35	24	13	7
157	-46	23	13	2
157	-28	19	5	6
158	-1	19	21	10
157	24	17	-6	7
157	38	23	-11	4
158	36	17	-5	2
157	22	13	31	0
158	26	12	40	1
158	33	13	21	-2
157	26	11	33	-3
158	23	19	-46	-3
157	72	28	-104	-6
159	75	19	-40	-2
158	-19	15	-21	4
158	-18	14	-17	2
158	-18	16	8	1
158	-27	21	-6	6
157	-51	15	6	7
158	-121	13	-7	4
157	-9	14	-4	-12
157	118	14	40	-24
159	105	15	47	-9
158	92	19	32	-8
157	46	22	30	-6
158	12	33	21	2
157	7	30	-3	14
157	2	26	1	22
157	14	28	29	13
157	-5	20	19	10
157	1	14	-4	10
158	10	6	-6	11
158	-1	14	-1	9
158	-13	17	1	12
158	-15	22	-6	7
158	-11	22	6	-7
158	-15	18	-4	-17
158	-20	19	-48	-15
158	-30	13	-47	-12
158	-10	13	20	-5
157	12	15	57	-5
158	4	13	24	-10
157	-2	15	32	-1
158	-1	18	28	-2
157	-6	19	-1	2
158	3	17	-3	6
157	7	13	-33	3
158	7	14	-56	-1
158	7	13	-3	0
158	8	17	80	17
157	6	19	100	12
157	5	19	78	12
157	8	24	-10	10
158	7	19	-57	-6
158	2	17	-72	-4
157	-2	19	-99	-4
157	-1	21	-47	-1
158	0	15	20	3
158	3	17	24	3
158	10	16	36	-4
157	5	11	97	-1
158	8	22	25	6
158	10	19	1	0
158	11	16	13	-1
158	12	21	9	-1
157	8	22	63	7
157	-7	13	29	13
157	-24	14	26	15
157	-21	14	16	13
157	0	18	31	15
157	17	23	39	7
157	24	22	-45	2
157	32	27	-114	9
157	32	22	-53	-2
157	19	17	40	-5
157	1	25	39	-15
158	-12	21	93	-18
158	-13	17	97	-18
158	-5	16	24	-21
158	10	14	-6	-12
158	31	15	-13	-5
157	87	16	7	2
158	110	15	43	5
157	72	15	15	8
158	47	18	-8	11
157	-6	19	23	9
158	-60	22	2	1
158	-128	25	-38	-4
158	-158	23	-48	3
157	-37	23	-26	7
157	26	20	-18	14
158	35	19	-25	14
158	59	19	-33	9
158	46	18	-32	9
157	93	17	0	-4
158	111	14	28	0
158	67	9	52	-1
158	31	11	72	-18
158	-40	21	38	-18
158	-99	19	-5	-8
157	-219	17	18	0
157	-248	14	3	3
158	-24	9	-32	13
158	40	-8	-18	14
158	15	-16	14	10
158	33	-2	49	7
157	-23	3	84	6
157	-41	15	72	3
157	-32	24	24	0
157	82	38	-32	0
157	120	49	-29	-4
157	58	50	33	-9
158	46	47	-2	0
157	9	33	-20	5
157	10	34	-19	9
157	10	27	-30	14
157	24	14	-15	9
157	45	25	-13	3
157	30	17	-7	5
158	12	8	-25	2
157	9	-4	34	-8
157	18	10	84	-7
157	51	34	86	-12
158	28	37	39	7
157	0	61	-51	20
158	25	49	-31	3
157	7	33	-21	2
158	5	30	-54	-5
158	-20	14	-53	-7
157	-20	18	-117	4
158	3	5	-72	-6
157	7	10	50	-1
158	48	2	14	-1
157	122	-4	14	-2
158	126	-10	47	-1
157	-1	-1	44	-12
158	-26	34	18	-23
158	-39	25	-37	-18
157	-101	-7	-7	1
158	-177	-26	84	6
158	-166	-3	104	5
158	17	15	92	6
158	46	22	72	10
157	23	19	2	11
158	48	24	23	10
157	53	33	-4	15
158	67	21	43	10
158	43	8	98	4
157	26	7	61	12
157	1	21	62	19
158	9	11	-43	19
158	-22	11	-87	-6
158	-4	14	-112	-25
158	28	13	-84	-21
158	-21	11	-68	-9
157	-4	6	-13	-2
158	11	8	141	7
157	18	-1	98	0
158	-8	8	12	3
157	-17	14	-70	10
158	-28	36	2	8
158	-73	45	40	16
157	17	-28	-17	13
157	82	-83	17	8
157	74	-15	6	-6
158	99	35	44	-6
157	19	49	3	-1
158	35	128	-17	4
157	33	139	8	3
157	-158	120	-19	-5
157	-200	82	-81	-5
157	-179	-61	-73	-13
157	-20	-47	0	-4
157	48	146	-25	2
157	19	152	-4	5
157	43	-24	18	0
157	41	-29	33	0
157	87	3	37	-5
157	30	-21	13	2
158	9	8	36	7
158	-12	-5	32	-3
158	46	4	31	-7
158	89	5	29	-12
157	-3	3	41	-2
158	-46	7	29	7
157	-64	0	-7	11
158	-49	2	-10	15
157	-54	0	25	12
157	50	7	45	10
157	124	6	12	9
158	109	13	-15	6
158	134	8	-35	-6
158	59	9	-3	-5
157	47	10	3	2
158	28	17	-4	-1
157	-3	22	-3	-5
158	13	16	2	0
157	-31	11	48	-2
158	-21	2	28	-4
157	10	16	-31	3
158	3	23	-28	2
157	-12	-1	16	-2
157	-22	-10	11	3
157	-1	0	15	3
157	43	24	19	1
158	78	68	9	-1
157	51	73	16	0
157	18	46	-6	4
157	-27	4	-20	4
158	-107	-15	-30	0
158	-188	22	-14	6
158	-151	58	9	8
158	-23	31	52	2
157	-21	-19	60	0
158	-22	18	51	-3
158	-7	19	32	-5
157	-15	6	-21	-7
158	17	25	-42	-1
157	16	16	-10	-2
158	27	23	31	-2
157	30	15	21	4
158	31	13	48	8
158	24	-2	51	11
158	13	-11	19	10
158	11	-1	15	4
157	0	8	17	0
158	11	13	42	-1
158	24	14	7	-10
158	24	18	-62	-4
158	26	26	-24	-3
157	17	51	-5	-1
157	3	60	-100	2
158	3	50	-89	-4
158	32	41	-18	14
158	102	16	29	10
157	103	17	60	-3
158	48	32	48	-3
157	40	4	40	0
157	-22	8	4	1
157	-121	30	-32	-6
158	-174	11	-34	4
157	-112	8	-16	5
158	8	21	16	-5
158	20	15	29	-4
157	29	4	15	-1
157	34	23	18	0
158	80	33	40	7
158	117	22	56	13
157	33	25	38	7
158	15	25	-22	12
158	-15	27	-13	12
157	-28	27	21	-3
158	-9	10	2	-10
158	-3	-2	16	-22
158	9	16	25	-30
157	7	20	-3	-23
158	23	22	8	-9
158	11	14	3	-9
158	5	1	-9	-4
158	-5	6	16	3
158	-8	1	27	4
158	-11	3	34	11
157	-36	7	7	15
158	-51	10	4	17
158	-16	13	35	15
157	16	14	12	17
157	41	22	-48	15
157	84	34	-49	8
158	93	39	0	0
157	67	61	-10	4
158	-27	93	3	8
158	-112	76	17	7
157	-63	42	12	10
157	15	-27	29	11
158	43	-116	21	0
157	78	-158	15	-5
158	100	-52	7	-3
157	82	111	33	-5
158	-11	99	54	-5
158	-66	71	-10	3
158	0	52	-39	11
157	-36	11	33	5
158	-48	14	17	-3
158	-8	16	-8	-9
157	-38	53	-12	-6
158	-10	44	-11	-2
157	-6	-1	4	6
158	10	-1	-18	4
157	23	1	14	-3
158	12	-10	37	-3
157	11	-1	38	-2
158	0	14	19	4
157	0	24	-10	-1
158	-3	15	-12	4
157	4	25	-8	-6
158	-6	44	2	-10
157	12	44	3	-6
157	29	28	6	-4
157	38	1	-5	7
158	19	-9	-7	7
157	-3	18	-1	4
157	3	8	9	2
157	-3	-51	16	3
157	-2	-25	13	2
159	-2	14	21	8
158	0	34	29	6
158	4	39	35	-2
158	11	45	16	-5
157	8	58	-9	-1
157	0	63	0	-2
157	-7	81	12	2
158	-12	41	8	3
157	8	32	22	4
158	69	34	19	12
158	100	15	10	7
157	42	1	-7	6
158	-8	8	-17	1
157	-85	19	13	-6
158	-121	6	19	-3
158	-146	9	32	2
158	-95	8	23	-1
157	52	5	-15	1
157	71	-19	-38	11
159	87	-26	-30	11
158	56	28	-11	2
157	30	56	-21	3
157	38	-16	2	0
157	16	-121	12	2
158	35	-52	20	5
157	19	167	27	1
158	6	131	15	0
158	0	-24	16	2
157	4	-5	13	4
158	12	103	15	3
158	11	69	16	1
157	0	-49	16	-1
157	-5	26	7	-3
158	-2	8	8	3
157	0	23	35	0
157	0	57	68	-3
158	-2	19	58	2
157	5	21	-45	4
158	5	1	-77	7
158	1	26	-10	8
157	3	10	1	-12
158	5	21	-8	-17
158	2	9	-3	-13
157	-5	17	4	-3
157	-3	26	14	3
157	2	-12	10	1
158	7	-6	8	4
158	3	5	15	2
158	5	-1	14	-1
157	7	3	12	-6
158	7	15	16	1
158	12	18	23	2
158	10	36	20	1
157	11	45	5	-2
158	25	51	-10	-8
158	34	57	1	-4
157	26	51	15	1
157	12	28	-1	-4
157	1	24	-22	7
157	-18	-5	-14	7
158	-41	-34	12	-1
157	-48	0	10	3
157	-15	9	8	1
157	12	-39	1	4
157	9	-54	4	0
158	11	36	13	4
158	8	144	8	4
158	-6	88	15	11
157	-8	-14	14	10
157	3	-35	12	6
157	6	-19	4	3
158	15	7	8	-5
157	16	19	24	3
158	-3	19	24	2
157	-24	10	16	3
157	-46	34	12	3
157	-34	38	15	4
158	13	34	8	7
157	31	28	8	5
158	38	-2	10	2
158	40	-9	7	-2
157	35	38	6	0
158	34	71	1	0
157	19	26	3	4
158	18	4	6	1
157	19	11	13	4
157	17	12	26	9
159	28	7	20	7
157	69	15	-5	6
158	106	23	-11	-3
157	60	17	16	-7
159	-21	1	28	-6
157	-68	-4	-6	-9
159	-88	33	-11	-1
158	-82	56	-6	-4
158	-38	1	-31	1
157	31	-59	-13	8
158	40	-25	8	0
157	38	-14	3	2
158	3	-41	10	2
157	-45	-4	15	4
158	1	110	16	-1
157	-87	134	0	-7
158	-137	43	-16	-1
157	-30	37	-1	-1
158	-7	49	14	0
157	42	56	23	-6
157	92	16	32	-1
157	133	-11	18	4
158	134	14	10	7
158	87	-33	10	7
157	67	-10	15	7
157	3	46	31	12
157	-45	58	26	11
157	-38	91	5	2
157	24	63	-12	-6
158	3	40	4	-14
157	-61	15	6	-14
158	-40	8	12	-4
158	-48	44	23	0
158	-32	24	-2	-4
157	-9	-5	-10	-5
157	-24	-13	-14	-6
157	-25	11	9	-2
158	-10	5	23	7
157	-5	-21	17	9
158	-2	-25	35	11
157	13	-54	36	11
157	15	-48	-44	12
158	30	6	-68	4
157	28	10	13	0
158	15	-13	4	2
157	12	30	2	-1
157	14	105	20	-1
158	16	86	6	2
158	26	15	12	5
157	28	7	4	7
157	45	14	13	0
157	63	34	6	-2
157	26	21	6	-3
157	9	0	12	2
157	-15	7	33	3
157	-67	32	43	-1
158	-99	44	33	-4
158	-37	7	13	-6
157	30	16	-54	11
157	-3	9	-44	13
158	0	6	8	5
157	-9	19	1	7
158	-20	14	18	0
158	-13	17	19	0
157	-20	11	11	-4
157	-13	15	24	-4
157	2	17	9	-8
157	48	17	3	-4
158	61	17	10	3
157	63	15	13	2
158	58	12	8	3
157	13	13	13	2
158	-25	14	15	4
158	21	15	19	4
158	82	32	13	-1
158	19	51	-8	-3
157	-9	36	-9	-4
158	-26	10	6	-1
157	-21	31	19	0
157	-1	39	5	1
157	-28	26	-23	4
157	-61	13	-15	-1
158	-69	3	12	-1
157	-28	-19	4	2
158	-15	-51	15	6
158	10	-35	23	8
158	8	39	23	6
157	-37	65	12	6
158	-10	57	-21	4
157	78	46	10	2
157	103	8	33	-2
158	93	26	17	2
158	117	19	-9	-4
157	133	0	-23	0
158	112	10	-5	0
158	30	8	7	-1
157	-28	18	13	-2
158	-75	27	33	-10
158	-81	30	13	-5
157	-47	30	-8	-1
158	-14	37	8	5
158	16	38	2	8
158	23	38	1	6
157	21	38	5	3
157	-5	38	6	2
158	-24	18	7	-3
158	-45	11	15	-5
157	-46	8	25	-1
157	-21	9	12	-1
158	-14	15	10	10
157	2	9	6	12
157	3	-4	5	9
157	8	-17	15	14
157	12	15	17	11
157	6	40	22	4
157	14	17	17	-4
157	4	5	7	-2
157	-6	24	7	-8
158	2	15	6	-5
158	-7	12	7	1
158	-24	15	7	-3
158	-65	13	2	-2
158	-103	18	4	-2
158	-41	21	-1	2
157	15	25	-4	-1
157	35	19	13	0
157	69	19	34	2
158	84	13	61	2
157	94	1	27	0
157	56	-6	-69	11
157	39	-6	-62	9
158	63	-14	9	1
158	85	-7	-8	11
158	93	24	-3	8
158	20	42	10	10
158	-34	-37	4	6
158	-126	-81	20	2
158	-201	57	29	-10
157	-155	127	54	-9
157	-66	68	50	-5
158	22	51	43	-13
157	12	66	-10	-10
159	30	32	-70	-3
157	71	45	-25	-4
158	97	48	-5	-3
158	124	36	-15	6
157	66	47	18	1
158	20	38	1	2
158	24	39	2	0
158	63	23	1	4
158	55	14	0	9
157	36	7	20	4
157	18	-3	24	6
157	-27	-14	18	5
158	-87	0	2	6
158	-122	3	16	2
157	-82	-39	30	4
157	-64	-62	46	-4
158	-49	-53	28	-3
157	-89	-9	-35	8
157	-125	29	-54	7
158	-23	77	-7	7
157	71	98	16	14
157	125	33	10	12
158	149	4	19	6
157	154	12	7	7
157	138	19	10	7
158	87	70	14	2
157	38	58	13	-5
158	-28	33	13	-7
158	-63	39	13	-4
158	-53	24	10	-5
157	-93	9	-6	-1
157	-89	-46	3	0
157	27	-42	7	-2
158	45	-6	4	2
157	51	-23	5	0
157	120	37	9	-4
158	84	50	14	-7
157	5	11	8	-9
157	-42	-6	16	-11
158	-37	-30	21	-2
157	-85	15	10	7
158	-135	37	8	10
157	-18	34	10	7
158	20	23	14	2
158	-8	23	9	1
158	-20	11	1	-3
157	-29	-7	-5	-1
158	-6	7	1	-1
157	1	1	10	0
157	55	-6	5	11
157	49	2	1	0
157	45	67	9	-8
157	60	62	16	-5
157	27	5	17	-3
157	-9	33	16	6
157	-51	40	19	2
157	-52	53	23	4
158	-22	48	15	12
157	17	21	51	3
157	53	22	37	-6
157	81	49	-90	8
158	74	94	-79	5
157	67	18	7	-1
157	47	-38	-13	8
157	40	-30	3	3
157	17	-8	26	0
158	-16	3	8	-1
157	-20	-31	-8	4
158	-55	9	-5	-6
157	-69	19	16	-4
157	-82	7	3	-4
157	-54	-15	4	0
157	-4	-54	4	7
157	12	20	16	-4
157	29	146	23	4
158	24	122	17	6
157	11	63	17	4
157	12	77	20	7
158	-5	34	45	3
157	-16	-6	50	2
158	-3	-40	20	7
157	-9	1	-24	9
158	-13	56	8	-2
157	4	38	3	-3
157	11	3	-45	0
158	-35	-16	-7	-1
158	-64	3	10	1
157	23	-7	17	-4
158	82	-47	-6	-1
157	7	-85	-18	6
158	-63	-25	7	7
157	19	44	3	11
157	33	42	-8	6
158	-29	62	-23	-2
157	2	70	6	-3
158	119	47	19	-5
157	217	30	17	-4
157	141	34	19	0
158	68	59	22	4
157	6	71	43	3
157	-29	61	24	3
158	-12	21	-12	-6
158	-44	-14	-1	-9
157	-36	-69	29	-4
157	-33	-103	8	-6
158	-40	-56	3	8
157	-43	-88	1	9
158	-37	-171	-3	8
158	-24	-73	14	13
157	-5	3	10	4
157	12	12	14	0
158	15	58	6	-5
158	11	39	3	-13
157	3	36	6	-4
158	-1	29	12	8
157	-15	21	16	10
158	-38	9	28	3
158	-67	25	53	1
158	-57	56	55	-2
158	-23	62	-7	-1
158	25	58	-84	8
158	58	55	-20	2
158	35	61	18	-1
158	42	56	-6	2
157	58	44	14	2
157	61	45	0	6
157	53	68	10	1
157	22	50	10	6
157	11	47	14	10
157	-14	47	19	7
157	27	26	2	0
157	73	18	5	-2
158	-10	48	2	-4
158	-71	69	25	4
158	-25	29	46	11
158	-37	-9	39	7
157	-135	-12	15	-2
157	-79	17	-2	-22
157	38	18	-25	-9
158	27	-20	-12	4
159	-14	-36	27	1
157	20	90	12	1
157	75	117	-19	2
158	91	36	-30	-2
158	40	92	-7	-12
157	-115	85	-2	-6
158	-168	82	-2	1
158	-49	62	16	0
158	18	10	32	3
157	58	27	44	1
158	106	1	5	1
158	136	-58	-46	6
157	137	-24	-32	2
157	84	35	27	0
158	20	7	27	4
157	-27	9	28	6
158	-41	10	26	-2
157	-25	-10	-12	-2
157	-45	-32	-27	8
158	-29	-37	-1	9
159	-12	-11	14	9
158	-9	3	3	10
158	10	36	8	2
158	21	57	10	-7
158	28	64	15	-2
158	20	31	-12	1
159	7	5	-29	7
157	-16	-6	-1	2
157	-27	-11	22	-4
158	-23	-13	33	-4
158	-20	22	40	-6
157	-18	111	32	0
157	10	109	7	-3
158	36	82	-2	2
158	31	63	9	4
158	21	6	9	10
157	38	-12	10	16
158	82	-65	16	6
157	52	-59	17	2
157	24	6	28	-1
158	-1	-16	13	0
158	-24	-10	-9	0
157	-12	11	-8	-7
157	-24	-4	1	-7
158	-24	-4	23	2
158	-16	-16	52	-2
158	0	-10	43	1
157	14	10	-45	9
158	14	11	-58	11
158	2	13	22	1
157	-28	58	10	-2
157	-71	72	1	1
157	-81	24	10	1
158	-16	14	7	2
158	47	29	16	9
157	132	35	17	7
158	122	24	39	8
158	74	20	31	3
158	51	18	-10	-7
158	-74	11	-44	-1
158	-137	14	-22	-3
157	-114	27	17	3
158	-74	69	42	-4
158	-69	81	77	-11
157	-14	60	37	4
157	58	46	-77	10
158	38	13	-105	4
158	75	-42	5	-1
158	102	-108	14	-1
158	107	-89	6	-8
158	80	19	19	-1
157	22	5	-6	0
158	-26	-25	9	7
158	-52	29	1	7
158	-15	23	10	0
157	-24	-8	17	2
158	-5	-19	18	-6
158	-9	5	6	-6
157	-32	30	-11	-4
157	-4	3	4	-1
158	10	4	19	-2
157	32	23	40	2
157	41	29	35	7
157	28	29	22	10
157	18	11	16	11
157	14	5	13	6
157	-11	-4	6	3
158	-75	-16	4	6
158	-77	-4	-3	7
158	-20	119	-10	3
158	11	201	-14	2
158	44	109	-11	3
157	62	86	6	-3
158	90	72	12	-11
158	116	34	18	-6
158	65	20	28	0
158	-9	10	26	-6
158	-45	18	27	-1
157	-99	3	19	0
157	-185	11	9	-2
158	-143	-1	13	4
158	-67	3	19	13
157	-111	-40	25	16
157	8	-119	0	9
158	88	-36	-19	0
158	75	67	22	-7
158	145	21	49	-8
157	221	10	-23	-7
157	228	60	-48	-8
158	31	44	-3	-3
157	-15	31	-12	2
158	-36	26	6	6
158	-64	12	-5	11
158	-11	17	-6	8
157	-32	18	29	2
158	7	7	16	-6
157	9	6	23	1
158	5	9	12	1
158	8	26	-12	-14
158	6	56	-25	-1
158	4	48	-11	0
157	-12	34	0	8
158	-21	24	-5	19
158	-31	-6	7	9
157	-16	-35	1	6
158	-21	-41	6	3
157	-14	-4	15	-7
157	-5	-46	30	-10
158	4	-56	27	0
158	8	39	10	-8
158	5	86	9	-7
158	10	39	31	-5
157	1	-30	18	2
159	0	21	-35	14
158	11	44	-24	-1
158	17	22	20	-2
157	19	54	9	7
158	15	60	5	10
159	1	22	19	1
157	7	11	20	-3
158	2	5	22	4
157	-1	-4	19	4
158	5	21	20	6
158	7	36	6	0
157	-4	33	-5	-3
158	-1	19	-3	-1
157	6	17	3	6
158	-8	14	13	2
157	-16	17	12	1
157	-27	36	19	0
158	-10	23	15	-2
157	14	-7	3	8
158	16	-17	0	3
157	13	15	-3	14
157	17	54	1	13
157	11	36	8	5
157	-1	32	12	8
157	7	39	18	4
158	7	24	17	-1
158	6	30	22	-2
158	18	24	0	6
158	0	26	-17	3
157	-104	23	19	0
158	-175	17	24	-5
157	-111	10	37	0
157	-37	1	49	7
157	41	5	11	-4
157	178	11	-64	-1
157	234	3	-56	-3
157	204	-1	8	-17
157	115	16	-5	-11
158	-7	13	12	-4
158	-36	1	2	-2
158	48	-10	1	1
157	73	3	4	5
158	-73	-7	-12	6
157	-134	-56	12	-1
158	-40	-79	8	10
158	4	-10	7	6
158	14	155	14	0
158	63	171	27	-1
157	99	86	20	-4
157	60	87	19	-2
158	-4	61	37	0
158	-12	4	39	6
158	-41	-14	25	1
158	-44	-16	-16	0
158	-11	27	-24	0
157	-34	41	5	-5
157	-7	4	-8	0
158	10	-3	-7	2
158	5	1	8	6
158	12	16	4	10
158	-3	22	8	5
157	-10	25	8	6
157	-39	19	15	3
158	-50	27	7	-1
158	-70	24	9	2
158	-48	-18	17	-4
158	10	0	17	-4
157	7	36	10	-1
157	35	18	9	2
158	77	46	9	6
157	49	5	0	3
158	31	-51	-9	0
158	14	-19	-7	2
158	-31	-33	15	2
158	-75	-8	18	1
158	-67	-31	34	2
157	-82	-12	43	-2
158	-164	49	-4	-4
158	-106	55	-55	3
157	0	81	-32	0
157	93	76	4	0
158	161	76	-9	11
157	194	60	1	13
157	248	41	8	13
157	169	24	14	7
158	44	26	18	0
158	-33	26	18	-8
158	7	19	38	-9
158	-21	22	26	3
158	-78	4	19	4
157	-90	-9	22	2
158	-163	-48	9	2
157	-128	-35	1	-1
158	-25	15	0	-5
158	38	-17	4	-7
157	78	6	4	2
157	117	18	15	4
158	133	-1	29	0
158	100	9	27	-3
157	34	-10	-9	0
158	-13	10	-42	-2
157	-39	18	-39	4
158	-23	29	-22	4
157	-13	40	13	-4
157	-26	36	58	-1
157	-15	54	43	-6
157	-35	73	-33	0
158	-31	94	-40	4
158	-21	65	7	2
158	-9	19	5	0
158	1	-34	24	3
157	15	-26	24	3
158	81	17	12	-4
157	107	-21	19	-2
158	62	-14	1	0
158	37	19	16	-4
158	-15	43	13	-6
157	-95	47	10	-2
158	-125	55	2	2
157	-59	71	-13	11
157	-11	47	8	13
157	-47	30	7	3
158	-18	6	9	10
158	-25	-4	18	10
157	-12	-83	15	7
157	2	-87	2	9
157	3	9	-3	6
158	52	15	15	0
157	35	39	9	0
157	31	4	2	3
157	9	-14	7	2
157	-30	45	19	0
157	-53	62	33	1
158	8	39	32	-1
158	90	8	16	-2
158	56	42	-23	-2
158	22	33	-9	0
157	6	19	18	1
157	-4	23	9	0
158	-43	30	13	-1
157	-86	28	10	-3
157	-62	21	-1	-1
158	-57	14	-11	3
157	-46	-19	6	8
159	34	-24	33	8
157	99	-16	39	3
157	110	-33	16	4
158	124	-42	-54	13
157	136	4	-49	-1
158	106	106	20	-13
157	46	166	3	-9
158	42	88	-7	-12
158	21	55	9	-4
158	-5	62	8	2
158	23	46	6	0
158	7	55	5	-1
158	-12	34	21	3
157	-19	17	28	7
158	-27	-5	33	6
157	-36	-16	38	1
157	-77	-27	32	-7
157	-144	-30	4	-10
157	-125	-10	-17	-1
158	-36	-3	-10	9
157	-10	13	-11	8
157	55	52	-5	-1
157	117	50	14	-7
157	139	42	5	-7
157	136	4	12	2
157	126	-54	48	3
157	104	19	75	0
157	46	35	54	1
157	1	-6	-58	7
158	-93	9	-83	16
157	-169	-32	9	2
157	-199	-31	-14	0
158	-132	1	-23	2
157	-1	63	2	-3
157	-10	85	-10	-2
158	-23	74	22	-4
157	21	91	15	3
158	12	52	10	6
158	1	-21	-3	7
157	0	-111	1	1
157	-10	-40	27	4
158	-4	-5	16	7
157	-3	-59	18	5
157	-3	32	14	4
157	1	48	6	0
157	-14	-4	8	2
158	-28	-17	24	-1
158	0	28	14	3
158	32	93	6	2
158	52	62	2	0
158	70	29	-15	1
158	21	27	2	0
157	24	5	8	2
158	77	-9	15	3
158	68	16	15	9
157	49	42	12	5
157	37	48	-1	5
158	8	23	-6	-1
158	-47	22	23	-2
158	-17	60	26	4
158	27	41	6	4
157	41	26	5	7
157	67	13	19	-4
158	111	0	22	-17
157	92	17	6	-18
157	12	15	-7	-14
158	-27	31	-18	-3
158	-61	42	-12	0
158	-31	61	0	3
158	-25	46	7	7
157	-48	37	19	7
158	-37	48	16	6
157	-21	-10	1	6
158	1	-105	-10	6
157	-7	-196	-11	4
157	-18	-71	6	5
158	-25	132	33	6
158	-1	51	37	8
158	10	22	14	11
158	43	71	-4	15
158	82	42	37	-5
159	47	37	23	-15
158	38	25	-43	-14
157	29	43	-4	-7
158	-56	31	8	4
157	-111	25	-7	3
158	-61	17	-6	1
157	25	18	-30	5
158	27	15	-17	16
158	-15	15	14	11
157	-58	23	12	3
157	-62	17	24	-4
158	-56	26	51	-9
157	-94	-3	29	-12
157	-42	-5	-34	-5
159	-29	0	-24	4
158	-79	19	58	-2
158	-6	62	27	2
157	30	40	12	2
157	48	8	32	4
159	92	6	4	6
158	106	7	13	9
158	145	-2	-8	11
157	142	-1	-14	-2
158	90	21	-4	-6
157	43	-20	4	-1
158	25	-33	4	-2
157	23	40	7	6
159	21	40	29	8
158	11	96	21	4
158	-14	182	21	4
158	-53	142	13	-1
158	-90	-2	12	-2
157	-61	-119	13	-3
158	-39	-14	-1	3
157	5	28	2	4
157	49	-83	8	7
157	51	-18	9	8
158	61	-27	3	6
157	53	-38	4	1
157	0	19	10	-4
158	-81	24	17	0
158	-64	37	16	0
157	-13	31	0	-2
158	1	67	-4	-2
158	12	43	6	-4
157	18	32	11	-7
157	112	24	13	-3
158	156	33	24	-4
157	79	45	25	4
158	-1	-1	0	3
158	-72	6	-27	3
157	-107	22	-18	3
159	-132	28	-3	2
157	-82	18	-3	6
158	14	28	4	1
157	7	62	7	2
157	32	40	19	4
158	-13	-10	32	6
158	-77	6	27	8
158	-24	-44	23	7
158	-10	-46	-14	7
158	26	27	-24	-3
158	67	-17	5	-6
157	98	-36	-11	-5
158	101	-6	-10	-7
157	55	141	11	-10
157	20	192	31	-9
158	-8	58	56	-1
158	-19	50	0	2
157	-11	58	-37	6
158	5	-40	13	-3
158	-1	-115	14	-1
157	4	-8	1	-3
158	5	52	25	-2
157	-17	35	59	0
157	-30	24	23	10
157	-50	-28	-73	23
158	-44	15	-64	11
157	-22	7	0	10
158	7	5	-1	10
158	30	17	1	8
158	46	5	6	6
158	55	15	1	-4
158	47	5	13	-2
157	22	22	19	-8
158	-11	8	40	-7
157	-30	18	29	-9
158	-16	15	5	1
157	1	-11	22	7
159	10	-34	21	0
157	23	-47	8	-5
157	29	1	8	-11
158	19	85	20	-4
157	9	105	24	-4
158	-5	47	15	0
158	-18	46	1	0
158	-5	46	32	4
157	37	19	33	10
157	-38	6	5	6
158	-117	19	8	9
157	-29	46	-2	5
158	24	69	-3	7
158	21	71	6	9
158	30	68	3	14
157	126	49	-1	9
158	133	-24	-21	-1
157	-8	-55	-7	-4
157	-36	-64	12	-5
157	-25	-22	12	-2
158	5	-8	8	-6
158	54	-8	-6	-4
158	31	20	19	-1
157	-52	0	29	-6
158	-93	33	21	4
157	-70	27	-2	12
158	-17	39	-14	12
158	9	57	10	6
158	5	47	-3	-7
158	51	11	-12	-12
158	72	-75	-5	-9
158	71	2	-10	2
158	50	44	-4	4
157	17	-6	8	0
158	-4	12	13	3
157	24	-2	9	-1
158	43	17	14	0
157	-3	13	8	2
157	-7	-16	6	2
158	-68	-41	6	0
157	-103	-25	5	2
158	-68	42	-15	-2
157	-49	35	-15	3
157	21	-14	8	9
158	78	84	4	9
158	66	227	8	7
157	42	92	2	0
158	32	14	4	-1
158	-17	77	19	-4
157	-87	39	40	-6
158	-67	36	83	-4
157	48	44	53	-3
158	64	2	-29	9
157	18	-25	-13	5
158	-17	-14	11	4
157	-123	-26	-51	19
158	-213	-31	-3	7
158	-138	-7	27	0
157	59	50	2	10
158	107	94	34	4
158	115	125	40	-10
158	179	126	36	-10
158	192	11	-2	-5
157	156	-154	-2	3
158	71	-110	-10	11
157	-8	-3	-8	8
158	-15	-38	-3	8
157	11	-2	-10	4
158	-6	3	19	-2
157	-17	25	13	-6
157	-24	26	19	-5
157	-44	2	9	-6
157	-67	14	13	-4
157	-103	12	16	-6
158	-101	8	-7	-11
157	-50	-18	-15	-4
157	-15	5	-20	-1
158	41	13	-10	0
157	92	28	20	10
158	103	38	49	10
158	90	44	51	15
158	55	46	56	11
158	43	40	47	2
158	-2	33	5	10
158	-8	21	-21	7
158	-29	45	-5	6
158	-57	57	-25	4
158	-29	60	-36	-4
158	-24	41	-11	-4
158	-22	2	-32	-1
158	-20	-39	-11	-5
158	-12	-61	8	-7
159	-25	-37	21	-10
157	-7	-7	45	-3
159	20	42	18	4
158	-8	82	17	2
158	26	28	-1	9
157	62	13	-17	6
158	44	8	-4	9
158	3	-14	2	2
157	15	27	7	-5
157	-55	61	5	-9
157	-209	101	12	-5
157	-135	101	1	0
157	-6	39	8	-2
158	43	-69	8	3
157	46	-37	-1	-2
158	53	37	-8	3
158	52	-7	-19	4
157	40	-7	-2	1
158	55	-12	25	9
158	74	11	40	6
157	108	16	29	4
158	106	-7	16	-1
158	114	-9	12	-1
158	90	14	0	0
158	24	18	7	6
157	-7	-25	10	8
157	-48	-24	15	6
158	-116	81	28	5
158	-168	200	36	3
158	-95	95	31	7
158	-39	53	45	8
157	-6	61	49	0
157	68	24	-34	-6
158	68	80	-72	-7
158	78	5	-8	-2
157	72	-31	2	4
158	45	31	-6	-4
157	-38	34	9	-4
158	-58	58	-6	-1
158	-16	56	9	4
157	-6	7	32	10
158	96	-31	52	-5
158	173	-107	19	-1
157	131	-90	-51	2
157	18	-4	-23	1
157	-114	-46	15	3
157	-235	-26	13	9
158	-289	-18	30	2
158	-193	-10	24	-2
157	-41	20	2	4
158	52	17	-23	6
158	87	32	-4	2
158	90	24	1	-1
158	56	52	-30	1
157	26	62	5	-6
158	23	61	15	-4
158	28	25	2	-2
158	55	-18	2	-4
157	38	14	0	-2
157	-22	101	13	3
158	-107	137	15	2
158	-88	77	17	2
157	-7	-13	20	13
157	8	-89	21	14
157	57	-98	40	7
157	104	-51	42	2
158	141	-27	-5	-6
158	125	57	2	-2
158	61	130	18	7
158	13	51	-12	4
158	-3	28	-16	-4
157	12	30	-22	-17
157	7	28	-10	-18
157	-6	34	27	-8
158	-5	36	37	-1
157	16	44	27	7
157	-1	15	21	10
158	4	-14	-1	6
158	8	-75	-6	6
157	-45	-50	4	2
157	-116	57	-2	7
158	-105	45	15	7
157	-33	72	8	3
157	-13	111	-1	2
157	23	55	1	2
157	48	16	-14	6
157	67	-7	-13	7
158	82	-5	-3	4
157	84	-38	10	4
158	100	-19	14	-4
158	110	-24	17	-2
158	98	29	7	5
158	65	82	9	13
157	77	10	30	7
157	-4	19	14	-2
158	-150	-20	-5	-2
157	-166	-27	11	-2
158	-146	7	32	-5
158	-193	11	53	-7
158	-120	17	70	-4
157	9	20	24	0
157	14	33	-69	7
157	25	59	-39	-1
157	45	61	-4	-3
158	26	22	-18	-1
157	20	2	15	0
158	38	17	5	4
157	-3	84	26	13
157	-103	79	15	18
157	-82	44	-12	11
157	8	56	-13	11
157	65	28	14	-5
157	113	-59	52	-16
157	114	-108	-5	-10
157	121	-42	-48	-4
157	103	-1	-12	-1
157	43	-15	25	-2
157	-31	1	2	1
158	-54	8	-12	4
158	-13	13	-20	8
158	-6	23	0	4
157	24	49	3	4
157	12	51	-2	4
158	-64	11	17	-4
158	-88	21	16	-6
157	-42	13	37	-6
157	-8	-9	18	1
157	28	-13	13	1
157	66	1	25	2
157	99	22	27	6
158	122	34	42	4
157	77	102	36	-5
157	36	162	6	-5
157	33	125	-30	2
157	80	62	-27	-4
158	96	18	-1	4
158	43	-39	12	7
158	0	-47	15	6
157	-79	2	9	6
158	-150	-19	8	0
157	-147	-46	16	3
158	-114	-31	22	2
158	-71	-64	9	6
157	-37	57	-2	9
158	-25	120	6	8
158	-16	45	1	-2
158	-11	45	-5	-4
157	1	-7	7	0
158	-6	-52	8	-1
157	-37	-88	-6	-3
157	-55	-34	-13	-2
157	-16	12	-4	0
158	11	38	5	0
158	34	22	6	3
158	65	27	18	-1
158	58	186	30	0
157	75	136	28	-1
157	89	76	11	-3
157	64	67	-5	-1
158	20	13	-2	0
157	10	7	9	0
158	12	-7	11	-1
158	-15	1	12	3
157	-102	-6	13	4
158	-140	1	19	9
157	-41	-5	48	8
158	11	2	73	4
158	51	10	38	-2
158	107	13	-46	-1
157	142	17	-57	11
157	139	-13	10	-1
157	63	-40	1	0
157	18	-24	-28	-4
158	-35	40	-8	-2
158	-27	38	-28	6
158	-65	3	0	3
157	-128	9	13	9
157	-40	13	-8	9
157	34	11	6	11
158	47	10	-3	7
158	105	8	2	14
157	146	-3	3	10
157	124	2	-14	-1
158	71	56	-5	-2
157	-26	95	27	-13
157	-113	67	56	-13
158	-81	38	72	-9
157	69	50	40	-15
157	90	47	-25	-5
157	-10	-3	-53	-3
157	-28	-107	-4	-13
158	-54	-108	10	1
158	-96	45	15	-2
158	-146	76	32	-4
158	-106	14	19	8
158	-8	8	13	14
158	-25	-5	-10	18
158	-10	13	8	13
158	-6	39	44	3
158	-1	63	46	-4
158	19	51	1	0
157	28	30	2	1
158	42	40	18	1
158	28	17	4	-1
158	15	21	-1	-2
158	-23	34	-14	1
158	-46	22	-9	3
157	-59	-6	6	1
157	30	-33	22	-4
157	116	-21	25	1
158	92	29	33	4
157	99	23	20	-5
157	61	22	-8	0
158	28	58	-19	-2
157	-25	72	-9	-1
157	-146	42	2	0
158	-192	-9	-12	-1
158	-102	14	-4	4
158	-9	5	-7	-1
158	24	-23	8	4
157	99	-18	21	7
157	167	-25	26	14
157	175	-48	29	16
157	134	22	17	3
157	65	111	14	-3
157	2	23	3	0
157	59	16	4	-2
158	84	67	-2	-1
158	-51	58	-2	6
157	-79	29	8	6
157	-53	38	27	8
157	-23	51	51	-2
159	29	19	1	-2
157	1	9	-86	0
157	4	-2	-59	6
158	21	-5	14	5
157	-9	-3	16	4
157	-65	3	41	4
157	-59	-4	42	-2
157	5	12	-2	-6
158	-26	46	-43	-6
158	-73	26	-18	-5
158	-58	-13	19	-1
158	-24	-6	6	1
158	0	9	13	0
157	-13	16	-15	3
158	-7	23	3	0
157	-1	74	12	6
158	3	98	13	17
158	14	41	38	8
157	9	24	36	2
159	3	13	25	-7
157	18	8	-7	-14
158	17	6	-10	-6
157	14	-14	-11	-2
158	27	-51	5	-13
158	8	-61	35	-15
158	-14	22	41	-4
157	-10	88	27	-1
157	-14	106	-28	12
157	-89	139	-21	7
157	-91	136	12	-1
157	16	62	-15	5
158	73	-21	-8	6
157	164	-89	-5	8
158	218	-51	-3	4
158	196	-50	17	4
157	143	-80	16	-4
159	28	-40	30	-1
158	-59	-32	25	-2
157	-86	0	17	-1
158	-7	-23	18	10
157	-13	13	14	4
158	-48	94	24	-3
158	-81	68	34	2
158	-132	-2	8	6
157	-40	0	-20	3
158	-32	13	-14	7
157	9	15	-2	2
158	51	63	1	0
157	31	75	6	4
158	42	52	38	2
158	15	-56	67	-2
157	12	-76	27	-4
158	20	14	-13	-1
158	79	37	16	4
157	63	28	5	8
157	36	-14	-8	6
157	38	-45	5	4
158	-40	14	12	2
158	-109	119	14	4
157	-105	82	-4	3
158	-28	17	21	-4
157	-29	62	11	-4
158	-17	85	-83	9
158	-10	127	-71	7
158	-16	95	2	2
158	4	31	1	9
157	-25	-2	28	4
158	-10	-48	40	-5
158	-7	-30	15	-6
157	7	30	8	-7
157	12	34	23	-11
157	25	-34	17	-5
158	58	-1	8	-8
157	67	-3	28	-8
157	56	-11	17	-4
157	13	10	20	5
158	-32	-3	15	12
157	-62	14	4	10
157	5	19	6	10
158	45	47	13	4
157	50	46	19	8
157	86	32	5	9
157	61	11	-8	4
157	18	-13	-21	-12
157	43	19	-6	-23
158	43	35	-3	-3
158	-120	44	-12	3
158	-146	91	-20	6
158	-62	98	-19	1
157	-51	61	-6	-1
157	2	19	-7	-2
158	82	-44	6	0
158	161	-103	29	2
157	209	-129	82	-2
157	210	-46	104	-1
158	98	24	55	-5
158	14	15	-4	-1
157	-18	-18	-39	7
157	-140	5	-2	6
159	-208	65	16	2
157	-112	25	-4	10
157	-28	30	8	8
158	-30	47	-8	6
158	-19	32	-15	11
158	-19	27	-13	4
158	-9	45	-5	6
157	-8	41	-1	9
158	0	66	-9	7
158	32	72	-1	4
157	19	6	21	1
157	11	18	37	-2
157	14	15	14	-4
158	61	-12	24	-7
158	75	-23	27	-8
158	38	-21	5	-7
157	15	4	-10	2
157	-50	15	-14	6
158	-115	92	2	4
158	-126	70	-3	10
158	-85	30	18	10
157	-138	56	28	5
158	-169	45	4	2
157	-3	54	4	1
158	117	27	5	0
157	173	17	5	3
157	209	-10	23	1
157	220	-77	39	-4
158	173	-82	25	0
158	73	-49	4	-6
158	26	-77	-1	-4
157	-47	-35	24	7
157	-97	51	37	3
157	-75	170	20	-1
158	-18	150	-52	-3
158	22	71	-92	2
157	27	96	9	-6
157	32	30	24	-4
157	49	6	-7	-1
157	54	-25	10	-1
158	73	2	-5	1
157	103	19	10	0
158	45	19	10	2
157	-21	43	17	4
158	-70	-7	8	7
158	-114	29	1	-3
158	-160	66	36	10
158	-141	55	52	23
158	-27	48	32	18
157	-13	4	-15	8
157	-16	-58	-25	-5
157	-17	-126	-10	-5
157	-22	-63	1	-8
158	-5	28	3	-10
157	-34	6	-22	-9
157	-30	33	-37	-11
158	-28	-19	-5	-6
157	-13	-30	5	0
157	2	-19	-10	7
157	3	-29	0	7
157	47	52	23	-1
158	81	40	33	-6
158	92	45	22	-7
158	81	59	21	-4
158	84	63	13	4
157	106	46	15	7
157	84	29	16	9
157	43	35	12	12
157	1	26	14	9
157	-56	26	8	7
157	-85	-14	22	4
158	-3	-8	52	4
157	22	25	65	-1
158	-93	75	-3	-3
158	-135	92	-71	0
158	-118	21	-4	-7
157	-75	24	37	-6
158	-11	25	4	-3
158	67	21	21	0
157	145	26	29	2
158	181	23	23	7
157	130	37	-15	6
158	8	31	-29	7
157	-41	22	-3	0
158	10	4	-4	-2
158	35	-76	8	0
158	10	-80	5	-3
157	20	23	7	0
157	67	-24	14	-4
158	125	-63	22	5
157	69	-82	20	14
158	-27	19	-5	9
158	-57	241	-13	0
157	-81	162	3	5
157	-112	120	3	10
157	-66	169	0	3
157	10	62	19	-3
157	-19	-43	34	-6
158	4	-49	43	-8
157	-11	13	39	-7
158	-10	-34	-12	-3
159	32	-21	-64	3
157	35	-5	-1	-2
157	16	-56	50	-7
157	-26	-4	16	-4
158	-41	-21	24	-4
157	-78	-54	28	-4
158	-92	-16	6	0
158	-29	16	-27	5
158	32	30	-33	0
159	19	-10	-9	-6
158	36	54	-15	4
158	36	136	-7	6
157	31	112	-1	2
157	33	95	-12	6
157	14	26	-15	8
157	21	-49	-3	11
158	5	-109	38	8
157	-11	-61	39	5
157	-38	-26	0	3
157	-19	-41	-7	-6
157	12	-1	15	-1
158	13	-4	30	4
158	50	26	31	-2
157	84	27	15	5
157	94	47	-1	2
157	91	90	4	-3
158	17	79	9	6
158	-107	20	18	8
158	-120	23	23	8
157	-65	44	15	2
157	-31	31	15	-5
158	51	49	27	-2
158	96	24	48	-4
159	49	8	25	0
157	-3	13	3	2
157	-10	32	-3	-5
158	-29	32	-15	-6
158	2	46	-14	-3
158	94	42	-5	1
157	163	-64	5	0
158	183	-81	-4	5
157	90	22	-3	8
157	-3	5	-6	4
158	-92	14	-8	9
158	-134	40	4	4
157	-95	0	10	2
158	-21	-2	23	0
157	22	46	49	-3
158	23	156	34	4
158	16	66	-4	4
157	-98	-4	-21	6
157	-87	19	-66	11
157	-18	51	-27	8
157	-41	73	25	4
158	-40	17	4	-1
158	-54	36	18	2
158	-27	-13	-12	0
158	-2	-17	-8	-1
158	25	-22	-3	0
157	62	6	2	-5
157	48	62	29	-7
157	22	47	16	-2
158	-26	31	24	2
157	-19	-1	20	6
157	4	6	21	12
157	22	-2	14	11
158	39	35	20	3
158	56	29	18	-7
157	75	9	5	-7
158	78	-23	19	-3
158	59	-16	27	-4
158	-38	49	40	-4
157	-136	11	59	8
158	-67	1	45	11
158	30	65	-39	-3
158	103	90	-101	2
158	155	-14	-43	0
157	100	-141	5	-6
158	61	-104	-6	4
158	5	-26	10	3
158	-64	-28	-11	6
158	-140	-13	-3	11
157	-82	11	12	0
157	33	80	-19	-11
157	12	130	0	-1
157	19	64	5	2
157	-27	43	15	0
158	-2	15	23	-2
158	4	-6	24	-5
158	-10	-9	38	-1
158	38	26	30	-8
157	20	47	23	-10
157	1	10	14	-8
157	-22	33	5	0
158	30	17	1	3
158	51	40	7	0
158	12	36	26	4
157	13	20	29	9
158	1	32	24	9
157	3	24	34	7
158	0	32	26	6
157	-5	31	6	4
158	-7	51	6	-1
158	-13	35	-9	-1
158	-14	-54	-16	0
158	-25	-44	4	-2
157	-12	48	10	-1
157	-5	0	-12	5
158	-23	11	-29	4
158	-31	23	1	-3
158	-25	1	20	-4
157	8	29	12	-2
158	32	35	-3	1
158	32	23	-24	8
158	33	-34	-1	6
157	28	-60	10	-1
157	4	7	5	0
158	-36	171	27	0
158	-80	94	44	0
158	-55	-18	29	6
157	-1	33	-36	14
157	28	24	-49	8
157	31	41	-1	-1
157	-24	40	4	1
158	-4	65	17	-2
158	55	57	29	-3
158	79	12	35	-3
157	150	54	14	-8
158	166	-35	-33	1
158	161	-54	-20	-1
158	95	-7	6	0
157	-30	-38	34	4
158	-140	17	51	2
157	-127	42	21	10
158	63	77	8	9
157	97	11	13	16
158	38	-11	19	8
158	7	11	16	-4
158	-66	-3	9	-2
157	-131	16	18	1
157	-172	-2	18	10
158	-85	22	-2	3
157	-20	30	-14	-2
157	-3	30	-10	-1
158	23	3	-2	-1
157	32	-9	-5	1
158	34	-15	-10	3
158	8	-8	0	0
158	12	18	13	0
158	10	47	4	-2
158	38	110	5	-1
158	49	149	30	1
158	28	105	51	0
157	10	7	61	0
157	-7	-107	1	0
158	-1	-138	-75	8
158	-43	-57	-39	-1
158	-66	-58	-13	-12
157	-46	-10	-30	-4
157	0	5	-3	-4
158	26	3	2	-6
158	23	51	51	-1
157	15	47	85	2
157	25	82	33	0
158	44	71	14	-3
157	52	41	12	4
157	31	-33	-15	10
157	-29	17	-24	8
158	-29	86	3	2
157	5	18	18	-3
157	7	38	-3	0
157	26	27	-21	7
158	55	26	0	3
158	-6	37	6	7
158	-96	33	2	3
157	-54	21	18	-1
157	10	-4	20	-2
157	29	-11	22	-1
158	88	-25	-4	4
158	146	18	-8	0
158	162	46	22	4
158	137	-10	12	3
158	85	-57	-10	10
159	0	-30	-4	10
158	-16	34	3	3
157	-17	183	-1	0
158	-160	164	14	-3
157	-200	46	9	-13
158	-73	56	8	-10
157	-24	15	17	6
158	-52	-52	13	1
157	-32	-60	17	4
157	48	2	14	-3
158	79	51	16	-8
158	37	66	2	-2
157	-25	-8	-4	0
158	-45	4	10	4
158	-5	-7	16	7
158	7	-47	16	7
157	11	-45	22	2
157	3	-41	34	4
159	15	45	41	10
158	31	116	34	6
158	12	137	44	4
157	19	91	36	-2
158	14	87	-23	2
158	25	18	-65	6
158	24	-79	-32	-6
158	23	-41	-5	-6
157	32	-40	-4	-8
158	19	-74	12	-4
157	0	-8	-12	-1
158	-9	-24	-12	0
158	1	10	-13	4
158	1	47	-1	4
158	10	38	9	2
157	17	45	3	-2
158	-5	9	13	-5
158	-33	36	4	5
157	-50	35	8	4
157	-58	42	12	-1
157	-66	29	18	0
158	-29	41	13	1
157	-4	23	14	-2
158	-44	-40	22	-2
158	-50	21	10	3
158	63	29	13	7
157	169	-34	34	9
157	201	-10	83	4
158	117	11	55	10
157	33	50	-74	10
158	10	49	-92	-4
157	-53	7	6	0
158	-43	17	9	5
157	-44	24	13	-1
158	36	71	6	-4
158	60	61	-26	-4
158	0	17	8	-2
158	-45	0	27	2
157	-77	5	34	-2
158	-32	25	-6	2
158	-7	24	-8	2
158	32	28	57	-2
157	13	1	47	-4
158	32	-41	14	-2
157	39	-38	-8	4
157	-12	-22	6	3
158	-14	-28	23	4
158	-14	-23	8	2
158	1	11	5	1
157	-20	106	6	2
158	-8	134	5	6
157	11	27	-11	11
157	12	44	-10	3
157	10	95	7	-2
158	4	96	13	-6
157	19	136	-1	-7
157	12	62	-11	-4
157	8	-7	3	0
158	14	-16	-7	3
157	22	-50	-12	-1
158	2	3	-6	0
157	-6	-11	0	1
157	-7	-6	7	2
157	-18	23	8	3
157	-22	34	17	12
157	-13	72	32	17
157	10	48	29	14
157	3	-9	10	7
158	-2	-133	4	-1
158	-8	-86	5	0
158	-20	-2	8	-3
158	7	-29	18	-6
157	83	4	19	-3
158	111	12	32	1
157	43	15	50	2
158	-83	7	34	1
158	-206	6	-17	0
158	-142	35	-67	4
157	-37	34	-31	3
158	66	35	-1	-2
158	135	32	-6	-2
157	73	26	-5	-2
158	19	22	-3	0
158	-29	33	25	-5
158	-5	59	24	-6
157	-24	56	16	-6
157	4	42	-8	3
158	85	24	-8	9
157	117	-14	21	2
157	161	-21	-9	-1
158	88	17	-4	-6
158	18	8	10	-5
157	-47	-56	13	-1
159	-15	41	29	3
158	17	51	32	0
158	-21	4	28	2
157	-12	43	25	4
157	-6	7	30	8
157	16	52	29	15
157	5	51	8	13
158	9	27	22	13
157	11	16	48	9
157	-9	11	-37	9
157	-19	-9	-97	2
158	-34	1	-26	-14
157	-28	70	40	-8
157	-21	53	33	-2
158	-15	-30	10	-4
158	13	-58	5	-1
159	24	-9	27	-2
157	-5	29	36	3
158	-7	99	3	3
157	-27	109	-33	1
157	-66	33	-16	1
157	-72	28	23	-2
158	-26	26	8	-6
