File Name: not saved
Channel 3: 'EKG', 23060 values, raw ADC, no filters.
Channel 4: 'FCR_EMG', 23060 values, raw ADC, no filters.
Channel 5: 'FCU_EMG', 23060 values, raw ADC, no filters.
Channel 7: 'ECU_EMG', 23060 values, raw ADC, no filters.
Channel 8: 'ECR_EMG', 23060 values, raw ADC, no filters.

158	14	20	37	7
158	12	21	54	9
158	9	13	36	4
158	1	8	-9	2
158	-3	13	-8	-6
157	0	20	-15	-4
157	2	22	2	1
158	4	18	-3	-2
158	5	15	-8	-1
158	6	17	-9	-4
157	5	19	-31	0
158	8	18	-9	2
158	8	19	1	2
157	5	17	5	0
157	4	16	0	4
157	1	17	14	-1
157	3	16	21	-2
157	6	24	21	5
157	5	25	61	-3
157	8	19	38	-5
158	8	24	-52	1
157	7	26	-81	-1
158	4	16	7	-8
157	4	18	27	6
157	0	22	41	5
157	-11	15	69	-3
157	-12	15	-13	8
157	-2	19	-89	9
158	2	18	-15	7
157	6	14	63	10
157	1	23	16	7
157	-6	22	36	-1
158	3	24	15	4
157	22	23	0	8
158	24	19	19	-1
157	26	20	-1	-3
158	25	17	-16	5
158	30	20	-43	8
158	29	18	-31	8
158	18	18	-39	4
157	11	22	-14	2
157	7	16	22	3
158	5	15	53	-4
158	1	16	104	-20
158	-2	16	86	-14
158	-2	19	46	-2
158	-5	17	27	7
157	-5	16	1	12
157	-3	16	-4	0
158	-2	14	-5	-8
158	-5	15	-10	-1
158	-13	14	2	-8
158	-18	17	0	-2
157	-7	19	2	-1
158	12	22	8	-8
157	18	14	10	4
158	3	15	17	0
157	10	24	10	5
158	22	24	15	8
157	16	25	15	3
158	11	21	-7	10
157	5	13	-18	1
158	9	16	-15	-3
157	3	22	-7	-3
157	1	22	34	-4
158	1	14	36	6
158	1	15	-30	9
157	7	22	-27	6
158	1	19	10	7
157	3	14	-8	9
158	5	14	-7	5
158	0	15	-11	1
157	1	19	4	0
158	5	18	14	0
158	3	19	13	-4
157	2	19	3	-1
157	5	21	-36	-8
158	7	21	4	-7
158	4	17	16	-4
157	4	12	-13	-4
158	4	11	5	2
158	3	16	32	-3
157	5	17	41	0
157	2	17	32	9
158	4	20	80	5
158	4	19	132	15
157	3	21	99	8
157	3	15	-26	8
157	8	19	-112	15
157	12	19	2	8
158	5	14	94	8
158	5	17	0	4
157	9	21	-116	4
158	9	21	-100	1
158	9	15	41	-8
157	8	15	72	-5
158	9	17	8	-9
157	5	13	-4	-12
158	4	17	7	-5
158	3	17	-24	-3
158	4	22	-45	-7
158	6	24	-29	-2
158	8	19	-31	6
157	10	21	-10	6
158	15	19	23	4
157	13	17	43	-1
158	1	17	36	-2
157	-1	11	27	2
157	-1	14	37	9
157	-1	22	17	5
158	0	19	-3	9
158	4	15	17	13
158	6	17	0	21
158	8	19	-12	11
158	4	17	17	8
158	2	16	31	12
157	7	19	30	-8
157	9	26	10	-13
157	9	22	29	-17
158	4	19	24	-20
157	8	23	5	-10
158	7	19	14	-5
157	4	19	-3	-1
158	0	19	-7	2
157	-1	19	-11	0
157	4	17	-7	-3
157	4	19	-10	4
157	5	18	-5	8
158	3	17	-6	11
157	0	18	1	10
158	4	19	31	16
157	4	19	30	11
157	5	17	39	5
157	7	20	17	-5
158	4	15	-29	-9
157	4	14	-67	2
158	4	16	-37	-4
158	2	15	13	-5
158	4	15	4	2
157	8	17	16	2
158	8	18	29	-1
157	7	18	21	-1
157	6	21	13	4
158	5	19	3	3
158	5	19	6	2
157	5	17	-9	0
158	5	16	-13	2
157	5	21	-17	14
158	3	21	-11	20
157	5	14	43	21
157	4	11	88	19
158	5	18	40	10
157	7	19	48	-1
157	1	17	31	-1
158	3	22	-71	7
158	8	24	24	10
157	4	18	71	18
157	5	15	-6	12
157	5	11	-33	10
157	4	15	-58	16
158	7	17	12	-9
158	5	22	82	-29
158	7	23	98	-15
157	6	14	30	-20
157	8	21	-49	-21
158	5	16	-32	-14
158	5	14	-42	-24
157	3	15	-21	-34
157	5	18	-12	-45
158	9	24	-20	-49
158	11	26	-24	-49
158	8	22	-36	-52
157	5	17	-8	-26
157	4	18	47	-1
158	7	18	84	10
158	4	17	88	21
158	3	19	64	26
158	3	19	2	27
158	2	17	13	16
158	1	17	25	16
157	4	21	20	20
158	11	23	-15	22
158	11	17	-54	33
157	9	16	1	27
158	7	19	29	21
158	5	16	22	18
157	2	17	-38	4
158	3	22	-71	11
158	4	22	-25	14
158	1	18	-18	10
158	2	17	-18	8
157	3	21	-8	1
157	4	19	7	6
157	3	17	29	4
157	1	19	51	3
157	2	15	50	6
157	2	15	-9	14
157	3	25	-31	20
158	8	26	15	12
157	16	22	15	13
158	12	19	-3	7
157	2	17	-4	8
157	7	19	-6	1
158	8	22	-1	-1
157	8	22	-22	3
157	7	16	2	0
158	0	15	71	5
158	0	15	157	9
158	-2	17	124	12
158	-2	12	29	-2
157	1	10	-63	-10
158	4	11	-108	-2
157	5	10	24	-7
158	4	19	16	-12
158	3	16	17	-7
158	1	15	36	-7
157	3	20	-27	-5
157	5	20	0	-1
158	5	17	6	-7
158	5	17	23	-5
157	3	18	14	0
157	6	18	13	0
157	5	19	20	1
158	5	17	23	9
158	5	19	-57	11
157	9	25	-124	7
157	6	17	-36	6
157	5	15	-8	4
157	5	23	24	2
158	7	24	55	-1
158	9	19	14	7
158	5	17	9	0
157	4	15	10	-6
158	3	13	-17	-15
158	5	17	-51	-15
157	5	19	-21	-8
157	3	19	5	-13
158	8	19	17	-15
158	7	17	-8	-14
157	13	21	12	-16
158	10	16	124	-23
158	5	14	147	-22
158	3	14	90	-4
158	-5	14	-2	12
157	-1	19	3	18
158	1	17	4	23
158	4	18	-53	14
157	3	24	-48	8
157	8	19	-33	4
157	7	18	-18	2
157	5	20	4	-1
158	6	19	10	-3
158	1	21	7	3
158	2	21	35	4
158	-6	17	54	2
158	-7	19	44	-7
158	-4	18	40	-9
158	0	14	60	-11
158	3	14	5	1
158	9	19	-106	20
158	17	21	-64	13
157	22	19	-15	6
157	24	25	-43	8
158	21	26	-29	10
158	23	26	-27	13
158	17	21	45	0
157	0	14	38	9
157	1	14	10	11
158	-1	11	65	7
157	2	13	18	2
158	1	16	33	5
158	1	13	15	2
158	0	17	-26	6
158	3	21	-6	13
158	2	19	15	9
157	-1	11	58	15
158	-2	9	66	0
157	2	13	80	-1
157	4	21	98	1
158	3	18	53	-2
158	4	15	-62	2
157	8	19	-104	-9
158	8	21	-12	-15
158	5	17	8	-13
158	3	18	-18	-3
157	5	18	-15	7
158	1	19	-9	9
157	3	18	20	-1
157	3	21	-1	-9
157	4	21	-15	-4
157	4	19	0	-5
158	4	17	27	-13
158	3	19	15	-4
158	2	19	5	3
158	5	17	2	1
158	5	21	-51	5
158	5	19	-56	7
158	7	21	-10	6
158	3	21	20	10
158	5	23	22	9
157	8	20	67	10
158	5	16	30	10
157	4	21	-80	10
158	10	20	-70	8
158	2	18	-17	-1
157	-6	18	-15	8
157	-3	18	10	8
157	2	16	53	6
158	4	18	79	-9
158	9	15	100	-15
158	12	15	56	-7
157	20	14	32	-8
158	25	17	55	-4
157	19	21	39	2
157	13	28	-7	1
157	12	26	-10	-1
158	6	17	-18	-2
158	3	14	-32	-4
158	-1	15	-11	-7
158	-3	17	-7	-4
158	-3	13	-10	-1
157	1	15	-16	-4
157	0	19	-14	-1
158	0	18	-13	0
158	2	16	-2	-1
158	5	17	8	2
158	11	16	27	4
157	5	17	72	7
157	1	22	71	13
159	-7	21	31	6
157	-8	17	15	5
158	7	10	-24	7
158	9	14	-58	11
158	12	28	-48	5
158	8	26	-54	0
158	3	24	-29	-1
157	1	27	-7	-8
158	4	19	18	6
158	7	18	71	4
157	5	17	67	6
157	4	18	21	4
158	3	21	4	-5
158	3	22	29	0
157	7	21	29	-4
157	8	21	7	2
157	9	19	7	0
157	8	19	32	6
158	5	16	36	13
158	3	15	6	7
157	4	16	-23	8
158	5	15	-11	3
157	5	12	24	-1
157	5	17	8	-6
158	5	19	-29	-7
158	6	21	-49	-5
157	8	24	4	-2
158	7	21	111	1
158	4	15	97	-4
158	4	12	-58	3
157	9	17	-99	2
158	8	22	0	-1
157	7	18	-1	4
157	3	18	-14	-7
158	0	19	-2	-6
157	2	14	-20	2
158	1	10	-15	1
158	3	17	-5	0
158	8	16	12	4
158	10	16	19	8
158	9	16	15	8
157	6	14	6	2
157	5	19	14	-3
158	3	18	43	-1
158	3	14	70	-2
158	3	18	0	-6
157	1	27	-79	1
157	-16	20	-21	0
157	-24	15	1	-2
157	-15	19	-9	0
157	-10	14	-2	-2
158	1	19	-3	3
158	9	18	40	7
158	16	16	60	0
157	31	17	75	-6
157	43	19	32	-5
157	39	23	3	2
157	31	23	31	0
157	26	17	12	-9
158	14	18	-39	2
158	11	24	-85	7
158	5	18	-20	6
157	-4	17	29	10
158	1	16	-1	4
157	-2	21	18	-1
157	-2	22	52	-2
158	-5	17	66	1
157	-5	17	49	6
157	-4	15	19	7
157	-5	16	20	4
157	-2	16	22	6
157	-1	19	14	6
158	-1	19	8	0
157	-3	21	-15	6
158	-1	19	-17	13
158	1	13	-7	7
158	1	14	-12	4
158	1	16	-3	-2
158	0	18	36	-4
158	0	14	65	-2
157	1	17	36	2
157	2	22	-37	3
158	7	19	-64	-1
157	15	19	-44	2
158	7	17	-16	0
158	1	17	12	0
158	4	17	28	1
157	0	13	28	1
157	3	15	-13	9
157	10	22	-20	10
158	12	21	26	3
157	13	17	-7	4
158	12	19	-26	7
157	8	21	12	-1
158	4	19	-3	-3
157	1	18	2	1
157	-1	16	6	-2
158	4	17	16	4
157	4	18	27	16
158	2	17	70	23
158	3	18	90	11
158	4	20	22	6
158	3	19	26	8
158	6	18	30	6
158	10	17	21	8
158	9	15	21	0
158	5	19	21	-10
157	6	18	4	-18
158	7	18	-101	-34
157	11	25	-155	-43
157	11	19	-57	-36
158	7	22	45	-27
158	7	22	90	-19
158	0	15	66	-6
157	-1	17	39	4
157	0	5	1	2
157	7	19	-90	-4
158	14	25	-65	7
157	10	17	-15	4
157	3	20	26	13
157	8	17	57	16
157	15	15	68	9
157	12	17	40	11
157	5	25	-15	16
157	0	25	-28	24
157	0	24	19	25
157	2	22	52	22
157	3	17	-32	27
158	5	19	-44	36
157	1	13	22	21
157	3	14	21	15
158	5	18	0	13
157	3	19	-3	1
158	5	21	-14	-7
158	7	16	34	-29
157	7	19	43	-49
158	1	17	40	-59
157	3	15	35	-35
158	4	16	-3	-28
158	5	17	16	-24
157	4	14	14	-19
157	5	17	-2	-26
158	0	19	48	-10
157	-9	14	73	7
157	-4	18	-37	17
157	-2	21	-88	28
158	-2	15	-15	27
158	5	15	-6	31
158	10	15	-32	43
158	23	17	-63	45
157	24	17	-19	42
158	16	15	46	40
157	8	17	-4	37
158	8	17	-23	27
157	10	16	48	8
158	14	25	146	-16
158	11	28	93	-35
158	6	31	-28	-49
158	5	26	2	-54
157	1	15	-2	-44
157	0	22	-4	-26
158	4	24	9	-7
158	4	21	-6	11
157	0	17	-34	21
158	0	18	-38	24
157	4	17	-5	21
158	4	11	-9	20
157	3	10	42	22
157	3	13	60	15
157	2	13	49	13
158	-1	8	110	11
157	-3	10	110	16
158	-2	17	6	10
157	2	26	-15	-13
158	7	29	-58	-22
158	8	28	-135	-17
157	3	25	-47	-30
158	1	23	-46	-15
157	3	22	-51	14
158	-1	16	-29	21
157	4	17	-83	46
157	10	18	-9	44
157	16	14	77	32
158	19	17	91	22
157	10	18	91	-1
157	5	17	122	-22
158	4	15	102	-50
158	8	21	6	-86
159	8	24	-84	-104
158	5	24	-144	-79
158	5	19	-55	-13
157	7	12	-20	21
158	0	9	14	18
158	0	14	100	25
157	3	13	80	31
158	2	18	51	28
157	4	17	84	18
157	0	10	125	15
157	0	13	-48	12
157	4	13	-112	-4
157	0	18	-2	0
157	5	24	-27	22
158	7	28	-4	32
159	9	25	63	36
157	5	19	29	48
158	5	26	-43	39
157	8	27	-62	21
158	6	23	-35	11
157	8	21	-41	4
157	6	18	-57	-6
158	3	21	-12	-21
159	-7	17	13	-28
158	-23	6	92	-29
158	-23	9	119	-36
158	-3	11	29	-62
158	8	15	13	-37
157	14	13	-5	-5
158	16	19	-8	-13
158	19	19	-18	-7
158	35	17	-7	-7
158	38	21	-15	-4
157	26	21	-33	18
158	17	29	-15	40
157	15	29	-32	43
158	7	24	16	42
157	5	22	-9	36
157	3	22	-12	11
158	1	22	42	-18
157	1	18	163	-41
158	-4	9	245	-39
158	-5	5	189	-16
157	-4	12	89	-8
157	3	19	-104	-4
158	4	19	-139	17
157	0	16	-52	13
158	-4	17	-19	9
157	-14	14	-33	15
158	-14	16	-54	21
158	-6	18	-31	21
157	-4	21	-11	16
157	4	24	-10	17
158	5	18	-11	-2
157	18	14	-4	-15
158	24	18	10	-9
157	19	23	-15	-7
158	18	24	-88	-14
158	16	24	-128	-14
157	13	15	-49	-10
157	3	9	111	-7
158	-2	8	163	2
158	0	23	45	9
157	2	25	-9	10
157	-1	13	116	12
157	3	17	91	12
157	11	23	-1	29
157	11	21	34	35
158	9	12	-21	32
158	11	10	-47	18
157	3	10	-2	-9
158	-9	12	-36	-19
157	2	17	-69	-15
157	8	18	45	-18
158	7	18	113	-11
157	8	26	21	-7
158	2	24	-11	-1
158	3	21	-14	1
158	1	22	40	4
158	-2	21	63	17
157	-3	19	-42	22
158	3	23	-152	41
158	7	22	-128	58
157	2	15	-75	78
157	2	10	-97	88
158	0	11	-71	79
157	4	16	41	78
158	3	14	268	66
157	5	17	261	24
157	10	25	117	-30
158	13	24	99	-91
158	10	17	6	-177
157	11	18	-23	-243
157	10	19	-62	-262
158	10	21	-88	-171
158	6	19	-13	-41
157	9	19	10	15
157	7	18	-66	36
157	3	9	-89	36
158	1	9	-2	40
157	-2	14	-67	48
158	3	25	-15	60
157	5	21	50	62
157	2	24	21	45
157	1	28	77	14
157	4	21	34	-32
157	8	17	69	-61
157	7	18	20	-63
157	5	19	-49	-2
158	7	13	-116	30
158	1	18	-180	26
157	4	16	-27	27
159	12	14	247	23
158	13	15	270	51
157	14	20	-69	64
158	10	25	-107	81
158	5	25	-130	95
158	1	24	-249	85
158	2	19	-113	58
158	3	24	-38	19
157	3	17	80	-11
158	-1	17	362	-33
158	5	24	532	-56
158	9	14	182	-54
157	3	2	85	-28
158	-1	4	228	-8
157	0	12	28	10
157	5	17	11	13
157	3	21	-110	17
158	1	14	-92	23
157	3	17	-100	-8
158	-1	20	-187	-56
158	-9	22	-143	-78
159	-30	24	-160	-43
159	-54	19	40	-37
157	-51	14	110	-34
158	-23	15	10	3
158	-5	17	23	6
157	11	10	85	12
158	36	15	-63	22
157	48	27	-152	30
158	58	34	-116	32
158	74	31	-58	36
158	75	31	-17	32
158	56	21	33	18
157	31	15	50	27
157	23	24	-71	13
158	11	19	-11	-3
158	-3	18	45	0
158	-7	17	27	4
158	-12	17	84	7
157	-12	15	92	4
157	-12	18	16	2
157	-11	19	45	9
157	-6	16	-3	13
158	1	14	-70	6
157	0	14	-40	0
158	3	20	-71	-1
157	1	24	-7	1
157	0	19	39	1
158	0	15	25	-2
158	-4	15	30	-3
157	-5	13	56	6
157	-5	14	33	13
157	-3	18	-47	9
158	-2	22	-75	-4
158	0	19	-72	-14
158	-3	11	-53	-22
158	-4	15	1	-21
157	1	17	137	-11
158	2	18	156	-7
157	5	21	18	-7
158	5	18	10	-7
157	1	19	31	-8
158	2	17	68	-1
157	3	17	54	0
158	-1	14	61	10
159	5	17	75	25
158	9	19	-34	23
159	6	21	-1	37
157	3	17	-50	30
158	-2	15	-158	8
157	0	14	-142	-5
158	11	17	-78	-3
157	17	22	102	7
157	14	24	290	-6
157	8	21	391	-14
157	-1	14	174	-16
158	1	22	-71	-29
158	3	23	-97	-23
158	4	16	-118	1
158	11	11	-34	-11
157	14	18	-146	-30
159	14	23	-17	-34
158	8	17	194	-67
157	8	15	51	-61
157	3	17	23	-21
158	-20	9	-45	-16
157	-27	21	-65	-10
157	-12	23	19	-6
158	-5	14	65	-1
157	4	15	-36	4
158	12	17	-158	14
158	23	25	-129	45
158	38	21	-57	29
158	34	17	37	34
157	25	14	1	38
159	31	22	-2	30
157	32	27	89	34
157	17	17	33	23
158	13	21	-68	33
157	7	22	-48	25
157	-2	19	-3	23
157	2	17	-105	7
158	1	22	-84	2
157	-1	19	69	9
158	1	18	128	-20
158	6	17	94	-28
157	2	17	69	-34
157	-2	17	78	-24
158	-5	18	-13	-7
157	-10	24	-20	11
159	-9	19	48	27
158	-5	17	29	27
158	1	21	-70	35
157	2	22	-93	35
157	0	19	-96	22
157	-2	12	-86	10
158	-8	11	29	3
157	-18	15	5	-6
157	-20	22	-70	-19
157	-16	21	29	-31
158	-17	17	193	-32
157	-5	19	93	-21
157	4	23	-7	-7
158	22	19	42	-1
158	35	19	2	1
158	44	21	36	4
157	43	15	88	1
158	35	14	103	-2
157	25	17	54	-1
157	22	18	31	11
158	25	15	61	7
158	9	10	18	3
157	-3	13	-81	3
158	-7	15	-90	-1
158	-6	18	-48	21
158	-3	20	-24	16
157	-7	15	23	7
158	-1	21	28	7
157	-1	22	31	2
157	0	19	5	3
157	-2	20	-20	11
158	2	18	-44	4
158	5	17	-49	-4
158	-1	22	20	11
157	-14	16	60	4
157	-24	14	38	11
158	-7	22	-56	25
158	7	18	-58	2
157	9	13	14	-15
157	15	17	28	-28
157	14	11	52	-34
158	10	16	26	-39
157	1	14	58	-41
157	-1	15	46	-23
157	3	18	21	-11
159	10	14	-3	-12
158	10	21	-23	-15
157	17	22	24	-6
158	26	29	17	4
158	22	33	42	11
157	19	28	-39	13
157	26	21	-109	7
157	16	15	-84	5
158	6	19	-100	17
157	13	21	-77	26
159	5	18	-3	29
158	-2	15	155	36
157	-2	18	215	28
157	-5	22	152	14
158	-7	15	134	3
157	-9	13	-82	-6
158	-12	12	-184	-8
158	-11	14	-82	2
158	-4	12	-91	5
157	-6	10	34	6
157	-2	17	61	7
158	0	14	86	4
158	3	19	165	-1
158	8	23	4	-7
158	7	19	22	-4
158	7	15	116	-5
158	8	20	20	-12
157	7	23	-34	-8
157	4	16	-75	-8
158	5	18	-107	-5
158	4	18	-74	-5
157	7	19	-63	-4
158	10	25	-41	4
157	12	26	1	5
158	14	23	-18	3
157	11	22	-11	8
157	5	10	93	-2
157	1	5	226	-5
158	4	9	137	4
159	5	18	-90	4
157	4	27	-48	7
158	2	21	-23	8
158	1	22	-60	16
157	5	18	-17	19
157	8	11	-14	14
157	7	15	-14	4
158	8	22	-38	-16
157	12	19	3	-21
157	10	19	-6	-13
157	7	19	-8	6
158	3	16	74	13
158	1	18	64	14
158	0	13	25	23
158	1	15	-1	25
158	5	22	5	14
158	4	20	51	16
157	1	22	55	18
158	-9	23	-28	17
158	-8	20	-27	6
157	-1	21	-9	-5
157	1	13	-28	-22
158	8	11	40	-32
158	11	17	90	-30
158	12	17	112	-21
157	23	17	28	-18
157	21	24	-40	-36
158	13	30	32	-42
158	14	23	78	-31
158	9	17	-39	-4
157	8	17	-83	2
158	10	10	-54	3
158	1	19	-49	18
158	-25	17	140	6
158	-49	12	115	-1
158	-28	20	-101	-11
158	-6	23	-94	-32
158	4	17	-16	-29
158	12	15	-42	-12
158	23	12	-2	6
158	42	19	60	23
159	48	24	52	25
158	34	17	53	27
157	32	26	-26	31
157	29	24	-65	32
158	14	23	-37	26
157	12	21	-16	23
158	3	16	0	27
158	-4	18	-20	19
157	-3	22	-12	14
157	-6	18	-4	14
157	-2	17	-14	7
158	-3	17	13	-3
157	-2	14	63	0
158	-4	24	83	9
158	-6	16	83	15
158	-6	16	41	13
157	-5	19	-6	4
158	-4	16	-55	-10
157	-8	12	-84	-23
157	0	15	-52	-18
158	5	18	34	-19
158	4	14	151	-11
158	9	19	42	-6
157	3	16	-36	-13
158	-5	11	53	-7
158	-2	13	8	-1
158	0	13	-13	12
157	2	21	-37	14
158	0	19	-57	13
157	-7	17	-108	19
158	-3	13	-49	13
158	3	4	178	0
158	9	14	197	-2
157	15	23	96	-6
158	19	16	32	-13
158	19	17	23	-4
158	21	22	63	0
157	21	27	-45	4
158	20	30	-104	2
157	16	22	-16	0
158	10	25	-29	15
157	9	22	-25	12
157	8	17	24	6
157	-1	11	41	-9
158	-2	10	14	-2
157	4	21	-32	13
158	3	27	-36	-4
157	-16	27	-67	-6
158	-22	18	-71	-4
158	-15	8	10	-12
157	-12	12	56	-10
158	2	16	46	-13
158	12	15	162	-12
158	20	10	135	-8
157	27	9	-55	-5
158	30	23	-63	-4
158	36	21	8	-8
157	31	24	15	-3
158	16	24	-17	-7
157	4	16	-10	-6
158	-1	17	-44	11
158	-6	11	-98	22
157	-4	14	-81	20
158	1	19	20	27
158	2	17	99	23
157	-4	21	95	23
157	0	22	-58	21
157	1	23	-131	10
158	1	19	-20	-5
158	-1	13	-1	-16
158	-1	18	33	-15
158	3	19	82	-21
157	2	14	201	-13
157	1	19	221	-14
157	-2	19	36	-9
157	-6	14	-15	-3
158	-2	17	-29	-5
158	0	16	2	0
158	1	17	15	9
157	3	27	46	25
158	5	24	60	27
157	8	28	-50	26
158	10	25	-32	16
157	13	13	-100	-5
158	18	13	-135	-23
157	8	14	-56	-23
157	3	10	-51	-22
158	4	13	-15	-21
158	1	11	27	-9
158	8	14	-27	19
157	9	23	-65	18
158	-1	17	5	7
158	-13	17	29	22
158	-14	21	40	25
157	-5	27	-18	15
158	0	28	59	-4
158	1	16	137	-2
157	5	15	-55	1
158	11	23	-82	6
158	21	26	-10	8
158	25	21	23	13
158	27	19	90	17
157	24	22	96	7
157	19	17	33	0
157	10	19	12	-10
158	8	19	11	-21
158	2	18	21	-9
157	1	9	33	1
157	9	9	-16	-10
158	8	19	14	-10
157	5	19	-70	-6
158	5	21	-132	0
157	-1	24	-111	6
158	4	23	-135	23
157	10	19	-25	18
158	9	14	154	7
157	-3	15	333	10
157	-9	14	262	-4
157	-5	22	142	-15
158	-4	24	61	-24
157	-1	24	-81	-20
158	0	23	-42	-4
158	-10	14	-50	25
158	-20	17	-69	27
158	-12	19	-25	15
157	4	23	10	14
158	8	25	68	15
158	12	13	129	8
157	14	14	30	7
157	28	21	-84	10
158	31	11	-19	-12
157	22	13	-121	-26
158	20	21	-90	-18
157	10	17	-115	-19
157	-1	13	-116	-21
157	-4	16	48	-8
158	-5	18	35	2
158	-7	12	158	4
158	-11	13	117	7
157	-9	21	27	7
158	10	19	4	-9
157	19	17	-2	-19
158	16	17	39	-7
157	10	14	31	-3
157	13	16	-3	2
158	14	18	-55	1
158	5	18	50	8
158	10	19	110	14
157	18	21	-70	17
158	10	25	-196	13
159	2	27	-113	2
157	2	25	-80	3
157	-3	20	-74	-6
157	-2	10	32	-5
158	4	13	109	7
157	4	17	57	7
158	4	18	25	4
157	1	18	33	8
158	-5	16	-6	20
158	-3	17	1	21
158	-5	13	27	10
157	-1	15	52	3
157	3	17	-50	8
158	0	13	-157	0
159	4	15	-44	-10
158	3	22	77	-9
158	4	20	74	-11
158	6	21	40	-19
157	1	21	119	-8
157	5	22	117	1
158	5	25	-42	-7
158	1	17	48	-17
157	3	19	192	-29
157	7	19	88	-31
157	7	18	-43	-16
157	8	20	-135	-4
157	7	21	-131	6
158	5	18	-79	19
158	7	17	-24	22
157	7	19	84	22
158	3	14	193	27
158	4	20	139	27
157	7	24	52	13
158	9	21	72	7
157	9	19	32	-3
158	8	16	-56	-21
157	11	15	-111	-17
157	7	17	-88	8
157	5	20	-54	21
158	4	21	19	22
158	4	19	57	21
157	4	13	-15	11
157	5	18	-14	10
157	1	15	-48	11
158	2	21	-59	6
157	8	17	5	0
158	5	13	43	6
157	8	17	103	6
158	8	17	57	-2
158	7	17	-39	-10
158	3	16	-41	-15
158	5	24	-13	0
158	11	25	-24	-2
158	3	28	-16	-5
158	-8	25	6	-7
157	-9	14	-50	-35
157	-5	14	-99	-39
157	-1	17	-64	-20
159	5	16	19	-1
158	7	18	34	2
158	11	12	-15	2
158	17	14	27	10
158	24	18	27	16
158	25	21	37	14
157	20	16	98	9
158	17	14	61	6
159	13	19	74	9
157	12	20	107	-1
157	4	20	121	3
157	4	18	108	1
158	0	14	118	-3
158	-3	14	81	0
158	-5	4	-47	-5
157	-5	16	-132	18
158	1	29	-161	15
158	0	24	-179	8
158	7	22	-200	20
157	7	6	-22	17
158	-1	10	45	8
157	4	21	118	0
157	-2	14	103	12
158	-3	16	-17	14
158	-4	17	58	22
158	1	18	-22	26
157	2	19	-75	23
157	5	22	-116	15
157	4	19	-64	-11
157	4	21	-14	-46
158	7	16	37	-68
157	5	17	187	-68
157	3	18	198	-71
157	3	19	99	-42
158	4	18	27	-7
158	3	17	10	4
158	3	18	-17	10
158	0	16	7	8
158	2	22	-31	13
157	4	22	-42	14
157	5	23	-67	24
157	18	25	-51	27
157	22	22	0	20
157	13	22	-18	23
158	1	19	46	18
157	-11	24	123	9
157	-15	22	107	7
157	-4	17	4	13
157	-1	20	-1	11
158	1	20	-18	8
158	7	19	-35	10
157	16	21	-41	14
158	27	19	-67	12
158	24	22	-53	4
158	21	22	-37	-17
158	31	16	-25	-15
158	34	19	-9	4
158	19	14	58	4
158	7	9	31	8
157	8	11	4	10
158	9	17	35	11
158	4	19	100	-3
158	1	17	72	-7
158	0	20	-38	0
157	-2	18	77	10
157	-7	9	74	18
158	-6	5	-117	3
158	-2	26	-95	4
157	4	19	4	2
157	2	10	-24	-5
157	1	25	79	0
157	-3	13	78	-2
158	-3	17	-15	-3
158	1	22	14	-15
158	-1	13	-20	-26
157	-1	12	-14	-36
158	-5	21	-67	-23
157	-1	24	-16	-2
157	7	19	37	6
157	14	17	14	12
158	14	19	6	8
157	3	20	-32	10
157	1	15	24	6
158	0	19	24	2
157	5	19	21	-4
158	8	23	10	2
157	11	25	4	7
158	5	17	41	13
158	5	22	17	22
158	7	21	7	18
158	5	17	20	27
157	5	16	34	25
158	8	21	-1	11
158	11	15	43	-4
157	8	14	70	-17
157	3	15	6	-17
157	2	16	-71	-15
158	5	22	-151	-25
157	6	15	-121	-25
159	2	17	-94	-15
157	7	22	72	-21
157	3	17	236	-21
158	2	9	190	-22
157	2	9	122	-31
157	5	10	101	-21
158	7	21	100	7
158	6	22	13	23
158	4	24	-9	27
158	10	26	-8	32
157	10	21	-43	21
158	5	18	-60	16
158	7	15	-91	14
157	8	14	-82	14
157	6	16	-79	20
157	6	19	38	24
157	2	15	24	13
158	1	17	-110	8
157	5	21	-66	2
158	5	22	-5	4
157	3	22	63	6
157	3	17	217	9
158	7	15	236	-14
157	10	14	43	-45
157	10	22	-131	-29
158	8	22	-169	-25
158	1	16	-71	-20
157	-3	19	-77	2
157	-5	15	19	12
158	0	17	66	17
157	3	15	-79	12
158	3	18	-25	14
157	2	20	-6	18
157	1	18	14	22
157	1	20	13	19
158	4	18	37	17
157	4	14	10	6
158	8	11	-32	-2
158	17	18	-55	6
158	15	24	-175	8
158	8	27	-69	14
158	9	22	44	11
158	5	17	108	10
157	7	20	177	13
157	8	19	180	10
157	7	15	102	8
157	7	19	6	0
157	7	19	55	-20
158	3	15	10	-29
158	0	12	-13	-26
157	-4	11	54	-15
158	-10	15	40	-12
157	-13	20	-40	-12
158	-7	23	-72	-8
158	-14	20	-24	-7
158	-17	18	6	9
158	0	19	-41	18
158	15	17	-66	20
158	34	21	-114	14
157	33	22	-78	7
157	33	17	215	21
157	43	14	286	11
157	36	24	41	7
158	17	21	-59	17
157	12	14	53	3
158	12	25	41	1
158	6	19	0	-15
158	-1	17	-32	-16
157	-3	25	-59	-14
158	-5	19	-60	-33
158	-9	19	-59	-29
157	-6	18	-10	-21
159	-5	20	-2	-12
158	-3	19	20	-8
157	-2	14	-26	-1
158	1	16	2	-1
158	-1	19	34	0
157	-4	14	53	3
157	-5	14	81	-5
158	-3	17	-7	-9
158	0	16	-7	-2
158	0	22	2	2
157	4	21	-12	7
158	3	19	-42	13
158	4	17	-82	20
158	0	16	-11	21
157	4	15	14	15
158	3	15	-24	12
158	5	21	-28	13
158	8	21	-28	12
157	5	21	4	16
158	9	16	91	18
158	8	16	139	12
158	3	15	69	14
157	4	16	-28	7
158	3	14	-104	-2
158	4	17	-106	2
157	4	19	-70	7
158	5	21	-5	3
158	4	18	161	5
157	0	20	149	2
158	-11	23	61	-16
157	-11	24	134	-21
157	0	23	57	-11
158	5	15	-36	-7
157	11	14	-53	6
158	16	21	-113	12
158	23	19	-49	4
158	25	17	-43	-1
158	24	17	39	-13
158	18	10	122	-15
157	14	15	26	0
158	13	23	-49	3
158	11	19	-161	11
158	14	21	-105	15
158	7	20	13	12
158	3	22	95	11
157	-2	22	106	7
158	-7	18	126	12
159	-5	21	89	7
158	-4	22	-13	-6
158	-2	19	56	0
158	0	19	27	-4
157	-3	16	28	-11
157	0	15	13	-8
158	3	14	22	-22
158	5	10	116	-25
157	3	17	102	-5
157	5	17	39	7
158	22	17	-104	13
157	28	18	-138	13
158	12	18	-54	-15
158	-1	24	-55	-9
157	1	25	-86	21
158	-1	19	-104	26
159	-3	10	-116	12
157	0	15	-82	4
158	3	24	65	-1
157	2	18	209	-10
158	0	14	111	-8
158	3	14	-66	-29
159	5	20	-16	-21
158	5	21	-23	-6
157	3	17	-102	1
158	6	19	-85	15
158	5	17	-31	14
158	5	12	186	10
157	3	19	178	-9
157	0	19	20	-23
157	2	17	27	-23
157	5	25	-22	-7
157	4	17	72	-1
158	3	14	40	5
158	3	17	-60	17
157	7	15	-5	19
158	7	19	-26	16
158	5	14	39	10
158	5	18	29	18
157	5	17	15	23
157	5	15	-54	16
158	5	17	-124	8
157	7	17	-71	-2
157	7	15	-52	2
158	5	18	2	9
158	5	18	36	13
158	8	24	31	19
157	16	31	52	0
158	10	17	130	-8
158	5	14	162	0
157	3	17	91	7
158	4	15	-3	10
158	3	21	-19	14
157	3	21	22	10
158	5	15	42	-11
158	3	15	-9	-15
158	8	22	-79	-22
158	5	21	-50	-18
158	3	15	19	0
158	4	16	-14	-7
157	4	20	-86	-16
159	7	19	-49	-5
158	6	12	52	-5
157	4	11	82	-15
158	3	20	44	-11
157	4	21	19	-3
158	6	22	21	8
158	12	22	20	15
158	14	18	-11	10
158	6	10	20	-1
158	-5	11	50	3
157	-11	14	17	17
157	-16	16	1	18
158	-12	19	18	11
157	-1	13	-39	15
158	9	18	-151	13
158	11	23	-79	5
158	15	19	89	-4
158	22	25	81	-9
158	24	30	7	-14
158	13	26	-5	-12
157	11	25	-31	7
157	11	16	-48	15
158	8	20	-20	7
157	4	22	14	9
158	1	14	48	4
158	1	19	77	-7
157	0	15	51	-7
158	0	15	5	-2
158	2	16	7	2
158	1	13	4	0
158	-1	17	-23	6
158	-17	18	-30	11
157	-27	17	-6	15
158	-18	15	39	12
157	-3	17	58	14
157	4	12	121	13
158	14	10	105	-2
158	26	13	-115	-10
159	35	19	-191	-21
158	37	23	-78	-13
157	31	19	-23	-9
157	30	18	60	0
157	32	18	106	2
157	19	16	163	1
157	18	17	107	2
158	12	22	35	3
158	3	19	-21	4
157	3	20	-113	4
158	0	24	-42	16
157	-1	24	-102	21
158	-3	18	-11	19
157	-10	11	136	12
158	-9	16	-5	10
158	-5	15	-26	-4
157	-2	16	45	-26
159	-2	21	24	-41
157	-5	22	70	-36
158	-3	25	-9	-14
157	-6	19	-42	-7
158	-6	17	33	-4
158	-2	19	-2	-8
158	-6	18	-44	-10
158	-2	21	-74	5
157	3	14	-27	10
158	0	16	-13	11
158	0	14	55	18
158	1	13	88	13
157	-1	20	78	2
158	7	23	57	5
157	17	29	-32	1
158	17	25	-52	-6
157	4	20	-27	-11
157	-2	17	-14	-33
157	1	16	-83	-24
158	3	19	-62	6
157	8	19	-5	20
158	8	18	13	19
157	8	18	36	15
157	7	26	45	9
158	8	22	101	10
157	8	18	47	13
158	9	24	-7	15
158	6	24	6	12
158	3	16	15	10
158	7	17	18	21
158	8	15	-7	23
158	6	22	8	26
157	8	19	-23	27
157	5	16	-78	19
157	9	15	-12	10
157	8	13	12	-4
157	9	19	25	-12
158	10	23	119	-23
158	7	16	154	-39
158	1	13	75	-33
159	2	18	-79	-25
158	9	18	-39	-23
158	10	17	-11	-16
157	8	14	-124	-5
157	9	17	-95	13
157	6	16	-24	8
157	3	12	52	6
158	-1	11	156	-1
157	3	17	155	8
158	9	23	-8	9
159	12	17	-41	0
157	10	15	-43	13
157	4	18	-42	10
158	3	19	74	17
157	-2	17	152	13
158	-2	15	125	11
157	3	18	-39	10
158	1	25	-62	2
158	-1	23	10	-6
157	-7	17	-16	-6
158	-4	21	-78	4
158	0	20	-34	-4
157	2	18	-29	-9
157	5	21	-92	-2
158	11	19	-70	-3
157	14	14	40	-12
158	-6	13	157	-4
157	-15	22	31	4
158	-1	18	14	8
157	7	17	47	19
158	12	16	-2	24
158	21	19	32	19
158	35	26	-43	14
157	40	30	-65	18
158	30	28	-8	2
157	15	20	28	-10
157	8	21	14	-11
158	11	14	18	-14
158	8	7	-37	-21
157	-1	12	-3	-32
158	-8	15	47	-21
158	-19	17	9	-11
157	-19	18	73	-9
158	-9	21	25	1
157	-7	21	1	-4
157	1	17	20	-4
158	3	17	-46	0
159	3	17	-49	7
157	12	16	-15	8
158	18	15	-33	14
157	16	16	-26	16
158	14	15	-6	15
157	12	16	-17	18
157	5	19	5	18
157	5	16	19	15
157	0	14	32	10
157	0	17	86	16
157	3	21	118	13
158	0	21	32	9
158	5	25	-54	10
158	8	23	-10	2
157	8	17	57	-16
158	2	13	84	-23
157	4	17	-5	-15
158	5	17	-56	-22
158	0	13	-64	-18
158	4	15	-54	-3
158	4	17	33	-7
158	6	17	70	-12
158	1	17	81	-17
157	3	21	-28	-8
157	3	22	-143	0
158	1	22	-65	3
158	5	22	69	11
157	5	20	89	8
157	5	19	58	-2
157	3	18	65	-4
157	3	15	75	7
158	1	14	4	6
158	3	15	-74	7
158	5	19	-146	16
158	5	15	-253	11
157	5	20	-163	-13
158	3	21	88	-17
159	5	15	338	2
158	7	21	277	4
157	8	9	104	6
157	5	6	117	9
158	10	15	-50	15
157	11	24	-94	22
158	3	27	2	19
158	0	24	-4	5
157	-5	18	62	0
157	-2	15	67	10
157	5	21	-7	13
158	8	26	4	4
157	4	23	38	-12
158	2	19	-109	2
158	7	17	-237	13
157	5	10	-189	0
158	9	17	-167	-2
158	11	24	-207	-10
158	8	16	-55	-20
158	5	18	170	-15
158	9	21	131	3
157	5	19	107	19
157	5	14	223	26
157	3	14	137	36
158	8	17	-14	27
157	5	13	18	13
157	4	13	30	-19
158	1	10	31	-47
158	-8	12	108	-41
157	-6	15	99	-30
158	-1	16	63	-27
157	-3	17	42	-24
158	1	15	-21	-18
157	1	17	-49	-9
157	3	22	-22	6
158	19	25	-34	17
158	29	22	-57	21
157	35	31	-91	23
157	24	30	-41	9
157	8	19	6	3
158	9	23	-16	6
157	5	21	43	8
158	0	21	40	7
158	4	21	-3	8
158	11	24	-35	13
158	8	18	-1	7
157	5	10	-9	16
157	5	14	-54	13
157	-2	8	19	17
158	-1	14	26	23
157	1	22	-19	17
157	3	25	32	14
157	2	18	77	20
158	3	15	32	22
158	3	18	-43	13
157	3	15	-110	0
158	1	13	-31	3
158	3	12	4	-3
157	3	14	35	-10
157	1	17	95	-19
157	3	21	62	-31
158	3	21	8	-20
158	5	16	-36	-25
158	1	15	-42	-17
158	1	16	-48	-6
157	0	14	3	-8
157	0	17	15	-8
157	2	18	-37	-19
158	2	21	-2	-12
157	6	19	174	-4
157	8	25	154	0
157	6	25	-24	1
158	5	21	1	8
158	5	15	-22	20
158	6	18	-22	19
158	3	23	-34	14
158	4	22	-65	-1
158	1	22	-29	-1
158	4	18	-25	7
157	5	18	15	0
159	6	20	31	2
158	8	22	89	3
158	7	18	128	11
157	6	16	103	13
157	8	19	79	5
157	5	20	65	3
158	5	17	12	-12
157	7	14	-19	-13
157	8	13	20	-5
158	2	18	12	-1
158	-5	23	17	14
158	-7	17	-2	20
158	-7	13	-94	21
158	-5	14	-261	19
157	3	14	-289	2
158	10	18	-111	-6
157	24	14	34	-18
158	24	21	249	-31
157	20	27	246	-31
157	18	24	42	-24
158	17	27	85	-9
158	14	23	84	-4
157	5	17	0	-5
157	4	14	-65	0
158	2	14	-48	14
157	-1	13	84	15
157	-3	13	28	16
157	0	19	-19	14
157	1	17	-2	8
157	0	17	-14	12
158	1	21	3	12
157	-8	17	-7	8
157	-17	15	0	-3
157	-14	11	-13	-2
157	-7	14	-44	11
158	5	23	-43	14
157	12	21	-10	20
157	11	25	-6	24
158	16	21	-28	14
157	18	21	-23	13
157	21	22	-13	10
157	20	19	-22	0
158	15	14	-30	-8
157	14	14	20	-18
158	14	17	48	-20
157	9	19	47	-25
157	1	17	57	-12
157	8	18	77	7
157	5	17	129	11
157	4	17	91	12
158	8	18	-18	11
158	1	19	-49	8
159	0	19	-25	3
157	-3	14	-29	-8
158	-4	12	35	-25
158	-1	16	99	-32
157	0	16	30	-21
159	0	15	-22	-18
157	8	18	-85	-12
158	16	18	-164	3
157	7	17	-89	6
158	0	17	112	4
157	5	23	72	10
158	8	29	56	9
157	4	25	136	-1
158	4	19	82	4
157	5	22	8	13
158	5	26	-142	29
158	6	18	-87	33
157	1	9	-71	23
158	2	17	-7	11
158	3	17	112	0
158	4	18	85	-6
158	5	21	85	-14
157	3	17	-13	-5
158	6	22	-32	-12
158	8	24	-88	-23
158	7	19	-89	-11
157	7	22	-20	-2
158	7	18	19	-1
157	4	14	58	4
158	5	20	3	11
157	7	19	21	12
157	3	15	20	19
158	3	20	-23	7
157	5	17	-24	4
157	2	11	-40	2
157	1	20	24	-2
158	1	15	87	16
158	3	17	26	11
157	3	17	43	14
157	10	19	40	16
157	14	18	30	0
157	6	14	56	-11
159	3	17	23	-12
158	7	16	12	-4
158	6	19	-30	7
157	7	18	-61	10
157	4	18	-37	6
157	6	19	-6	10
158	4	23	16	20
158	5	24	50	17
158	2	19	-16	12
158	-2	18	-23	0
158	1	12	141	-13
157	5	17	78	-15
158	5	21	-3	-8
158	7	24	-3	-4
157	11	25	-38	-18
158	14	19	-11	-23
158	7	18	-15	-26
158	3	19	-13	-11
157	0	15	-92	7
158	-5	17	-98	11
157	-2	18	39	2
157	0	14	104	-14
158	5	6	128	-3
157	5	15	-19	17
158	8	24	-39	10
158	6	19	29	0
157	7	20	-30	4
157	7	14	-19	-8
158	2	13	-14	-11
158	6	19	33	4
157	8	19	20	-2
158	5	18	-5	-10
158	4	19	12	-11
157	4	16	2	-4
158	4	17	27	2
158	3	17	13	10
159	0	14	7	13
157	2	18	-18	13
158	7	23	-25	22
157	8	19	-5	13
158	7	22	-25	15
157	7	25	21	14
157	7	19	30	9
158	5	17	4	3
158	5	18	9	-13
157	1	12	-7	-25
157	1	9	24	-15
158	0	15	31	2
157	0	19	12	2
157	3	15	80	7
157	5	15	69	0
157	5	15	-23	4
157	8	19	25	7
157	11	26	41	3
157	10	25	14	12
157	7	21	24	11
158	5	20	32	10
158	7	19	37	14
158	7	17	-99	23
158	14	19	-151	30
158	8	14	16	8
157	3	12	63	7
158	9	24	-59	1
158	6	24	-27	-9
157	3	17	38	-4
158	5	21	52	-16
158	4	25	146	-12
157	3	21	98	-10
157	1	17	19	-10
157	1	11	32	-6
158	3	14	21	-7
158	1	18	-49	2
157	-1	14	-88	6
157	3	16	-108	-3
158	0	16	-85	-5
158	1	12	2	2
158	14	18	-18	-7
158	17	18	-128	-10
158	10	19	-70	-1
158	12	26	157	-10
158	10	18	100	-9
157	4	17	41	2
158	7	16	122	11
158	7	13	35	12
158	9	19	-8	4
158	5	17	10	0
157	3	13	16	-12
158	-2	14	82	-19
158	0	18	33	-6
158	4	19	-141	-9
158	1	14	-52	-27
158	3	15	-15	-32
158	1	17	27	-19
157	2	22	85	2
157	3	21	34	7
158	2	17	47	18
157	4	17	-5	23
158	5	18	-9	15
157	3	22	-36	19
157	4	19	6	10
158	8	19	22	17
157	5	18	-7	19
157	5	16	-7	13
158	3	22	-22	11
157	4	20	8	11
158	5	17	-3	11
157	2	22	26	9
157	7	22	-18	18
157	8	22	-101	15
157	9	23	-54	6
158	8	19	51	1
158	5	17	66	0
159	8	18	32	-4
157	5	18	31	0
158	6	21	25	-1
158	2	20	32	-10
159	1	19	12	-7
158	3	18	-1	1
158	3	17	24	14
158	7	18	40	4
158	7	21	10	8
157	5	22	19	8
158	5	15	38	-7
157	7	14	-29	-5
157	8	18	-51	-7
158	5	18	-17	-10
158	5	19	-74	-7
158	10	16	-100	-3
158	11	16	-32	3
157	5	16	26	4
158	0	15	176	1
158	-3	17	177	-21
158	-8	17	-27	-31
156	-3	25	-53	-8
157	5	29	-12	3
157	7	21	-32	2
158	5	15	12	5
158	5	14	14	8
158	14	17	41	11
158	12	16	25	11
158	5	18	-1	17
158	10	21	29	18
158	10	22	13	4
158	5	18	41	-8
158	5	19	28	-11
158	8	17	10	-7
157	3	14	-19	-9
158	1	17	-49	-8
157	4	20	-48	-4
157	7	22	-43	11
157	8	17	48	21
157	5	17	97	19
157	1	11	100	6
157	1	16	63	-8
157	5	22	-16	-10
158	4	11	78	-15
158	-3	15	125	-17
157	5	19	-12	-3
158	3	13	-56	13
158	3	19	-62	25
158	5	15	-27	33
158	4	13	-12	33
158	11	22	-77	22
158	11	15	-96	10
157	8	22	40	17
157	12	28	24	16
158	8	18	-58	4
158	3	14	48	-2
158	-1	9	-9	-10
158	-3	12	-5	-25
157	1	19	8	-33
158	4	17	-30	-34
158	5	19	-18	-40
158	9	21	4	-29
157	4	19	70	-24
158	6	19	82	-30
158	14	21	15	-10
158	14	17	-23	-4
158	4	17	21	-2
157	1	19	14	5
158	4	21	42	14
158	5	22	13	21
158	3	18	-24	18
157	1	15	-46	15
159	8	16	-46	22
158	8	18	1	18
158	5	20	-25	-2
157	5	20	35	-2
158	3	18	56	6
158	5	17	64	7
157	5	19	38	11
157	5	19	-30	13
157	3	19	-30	6
157	1	15	-51	4
158	0	15	-6	7
157	1	16	6	10
158	1	10	-20	3
158	8	13	-28	4
158	11	19	1	10
157	5	15	19	9
159	4	18	66	15
158	3	16	66	15
157	3	19	12	7
158	3	19	58	-4
158	2	14	-41	-13
158	5	19	-94	-3
158	3	19	3	2
158	5	22	68	13
158	5	22	-1	14
157	5	15	70	4
159	3	10	145	1
157	5	15	59	-3
159	3	22	111	-2
157	5	21	41	-11
157	5	28	23	-9
157	9	26	37	-7
157	14	18	47	-16
157	13	14	27	0
158	7	17	-111	10
157	1	17	-72	6
157	-2	11	-36	6
158	-5	14	-56	5
157	1	24	-16	7
158	9	24	-2	7
158	4	17	0	6
158	2	12	-37	6
158	6	14	-60	4
158	6	18	-2	1
158	5	17	-17	-1
157	8	25	2	-3
158	8	27	47	-5
158	5	22	47	-5
158	3	17	19	4
157	3	15	3	4
159	3	18	17	0
157	4	15	-44	-1
157	4	21	-60	-2
158	5	25	-22	4
158	4	21	8	7
158	7	22	17	4
157	9	18	-24	-6
158	5	15	-25	-12
158	1	12	22	-9
158	-1	13	19	-13
157	3	19	-24	-9
158	4	24	-39	2
157	5	22	-23	7
158	8	22	26	18
157	8	22	39	21
157	8	22	43	18
158	9	22	104	16
157	9	18	61	2
158	12	23	60	-22
157	10	18	119	-49
158	3	18	44	-35
158	3	16	-19	-8
158	1	11	-31	-26
158	-1	11	-52	-5
157	3	14	-74	26
158	9	19	57	21
158	6	16	182	19
159	2	16	111	14
157	3	18	-33	17
158	8	19	-149	4
158	5	16	-41	-32
158	2	17	12	-29
158	7	26	-30	-29
158	8	22	13	-29
158	3	17	12	3
158	7	20	-9	15
157	8	19	-35	19
158	8	13	4	21
158	5	16	21	29
158	8	22	-2	33
158	6	12	43	29
157	3	12	74	25
158	7	18	31	13
157	3	21	6	1
157	1	21	-11	0
158	2	15	-87	21
158	6	17	-133	19
158	4	19	-44	3
158	5	17	31	-2
157	5	15	38	-14
158	1	18	132	-22
157	5	16	162	-23
158	7	20	19	-12
157	8	22	-44	-9
158	4	21	-25	-11
157	4	17	22	0
157	3	18	67	0
158	1	19	9	2
157	5	19	103	13
158	5	15	81	4
158	5	22	-67	-4
158	6	23	-53	9
158	5	12	-142	4
158	0	14	-82	-10
157	0	16	53	-1
157	2	19	15	15
158	5	22	27	15
157	4	16	30	15
158	3	17	37	3
158	1	17	31	-11
158	2	19	33	-11
157	6	12	-15	1
158	9	18	-86	2
157	11	22	-24	4
157	12	18	-32	14
158	11	19	-60	15
159	10	14	-11	10
158	3	14	69	-8
157	-1	17	138	-9
158	4	21	113	-3
158	4	18	8	-5
158	0	18	-43	-4
157	-1	18	-31	1
157	5	19	-114	0
158	10	17	-122	7
158	10	21	-10	9
157	11	26	10	4
158	16	25	0	-1
158	5	22	63	-3
158	-3	12	44	-4
157	5	15	-2	-10
158	7	15	26	-5
158	5	19	25	-2
157	5	22	42	-5
157	7	15	41	-5
158	5	16	15	0
158	7	15	28	10
158	5	17	68	15
158	3	16	58	12
158	3	22	6	9
157	1	22	-4	-1
157	1	15	-7	-11
158	1	19	-38	-13
158	2	19	-64	-21
159	2	15	-47	-14
157	0	15	-54	-10
157	2	13	-86	-4
158	4	21	-65	3
157	8	23	40	3
157	6	23	109	9
157	8	28	136	12
158	5	23	130	21
158	5	22	55	21
158	4	19	-73	19
158	5	15	-116	14
158	7	7	33	13
157	3	5	50	4
158	2	13	43	-6
158	4	14	179	1
157	4	12	137	7
158	8	19	-19	15
157	7	24	-8	9
158	4	18	-16	-5
158	3	20	-31	-10
157	6	19	1	-18
157	9	18	32	-23
157	7	13	45	-14
158	4	16	-58	-14
158	5	22	-41	-20
158	3	15	-19	-8
157	2	17	-22	-4
157	2	20	-60	-1
158	3	22	-108	6
158	5	23	-7	7
158	5	21	27	7
157	9	18	66	5
157	11	17	81	1
158	11	19	24	2
158	11	21	1	10
157	8	15	-7	18
157	3	14	-50	12
158	4	22	-56	9
158	5	19	-64	25
157	7	24	-37	19
158	7	22	46	22
157	5	16	0	14
158	3	20	-45	-6
157	4	26	-72	-15
159	8	22	-15	-36
158	5	21	26	-15
158	3	22	9	1
157	1	19	68	4
157	1	16	98	14
158	2	14	93	-3
158	3	14	-4	-17
158	4	14	-32	-11
158	4	17	12	-10
157	0	15	11	-15
157	3	18	22	-4
157	7	19	-11	6
158	8	21	-11	5
157	3	21	42	6
158	7	18	64	17
157	8	20	80	14
158	3	15	34	11
157	2	21	1	14
159	1	18	19	12
158	3	20	30	13
157	5	19	24	17
158	7	15	-33	12
157	5	15	-99	8
158	3	15	-96	0
158	6	14	-55	-2
157	5	16	-43	4
159	9	23	8	0
157	10	17	74	-4
159	8	13	131	0
157	5	21	134	10
157	7	27	66	8
157	5	19	111	-4
157	3	15	97	-8
158	3	17	-44	-14
158	4	21	-1	-22
157	5	24	44	-26
158	7	20	28	-26
157	7	24	-44	-19
157	7	22	-97	-7
158	9	15	-50	-3
158	9	17	-40	8
157	12	12	7	19
157	5	13	-16	15
158	0	12	-34	5
158	-4	11	13	6
157	-7	18	17	15
157	-5	19	-20	12
157	-3	17	-73	10
157	-1	15	-88	4
157	2	18	-131	0
157	7	25	-127	2
158	3	26	69	6
158	9	19	313	9
158	20	18	177	-5
158	14	19	14	-11
157	7	17	48	-4
157	9	17	-44	5
157	8	15	-32	8
158	8	21	-24	9
157	8	22	1	1
158	2	17	26	-9
157	6	17	-6	4
158	5	13	6	-5
158	4	14	-26	-14
158	9	24	-30	-7
157	6	20	-26	-10
158	3	19	29	0
158	0	16	10	2
157	3	19	-54	-1
157	5	21	70	-6
157	4	14	168	2
157	1	18	-38	5
157	2	18	-78	-10
158	8	17	32	-18
157	8	19	-30	-6
158	11	21	8	6
157	7	16	-35	0
157	4	9	-30	4
157	7	17	12	5
158	4	17	48	13
158	5	16	101	17
157	6	23	63	13
157	5	20	95	27
158	3	18	56	26
158	1	21	4	24
157	0	19	12	10
157	4	21	-12	1
157	3	20	-42	0
158	5	15	-55	-3
158	8	18	-62	-1
158	9	21	-53	0
158	14	18	-23	-2
157	15	19	-43	-10
157	10	18	-74	-8
157	8	19	-24	-8
159	4	24	42	-8
158	4	18	58	-3
157	-1	14	137	1
157	1	19	140	10
158	3	18	14	0
158	-1	14	14	2
158	2	19	49	8
158	4	18	51	-6
157	5	19	5	7
158	8	23	-54	22
158	8	19	4	16
157	5	19	-16	14
157	0	21	-87	9
158	2	19	-63	8
157	3	24	4	-2
158	2	15	39	-2
157	5	15	-35	-1
158	5	22	-68	-4
158	10	21	17	-1
158	9	17	36	-18
158	3	14	-62	-18
158	6	21	-54	-12
158	3	14	2	-10
156	4	17	40	-5
157	6	17	38	-5
157	5	13	40	0
158	9	15	66	-1
157	5	16	45	-4
158	4	17	67	6
158	7	17	46	24
157	5	21	39	25
158	1	17	14	17
157	0	17	-94	12
157	4	24	-91	0
157	11	21	-24	-22
158	15	19	-6	-39
157	6	11	57	-54
158	-3	7	105	-24
157	-1	23	55	9
158	0	28	45	7
157	-2	19	24	18
158	2	24	-12	14
158	8	23	46	18
158	5	21	130	19
158	7	15	104	22
158	8	15	-22	22
158	5	17	-75	16
157	4	-9	-72	-2
158	3	-42	21	-24
157	4	-42	-10	-13
157	8	-36	-52	-4
158	5	-38	-11	2
158	4	-25	-64	12
158	4	-22	-7	19
158	4	-17	-35	11
157	5	2	-51	-8
158	6	14	-16	-11
157	4	20	-10	0
158	6	26	45	6
157	6	26	38	-1
158	4	30	45	-9
157	5	42	12	-7
157	7	40	20	-6
157	6	39	82	-8
158	1	44	28	2
157	4	47	-86	12
157	1	46	-90	1
158	2	45	5	-1
158	1	46	56	13
158	0	45	110	7
157	4	45	61	17
157	5	37	-12	26
158	5	39	0	21
157	14	47	-22	10
158	22	46	-13	-2
157	16	44	-30	-4
157	11	43	34	-8
157	8	34	136	-4
158	5	29	105	-1
158	4	30	-2	5
158	5	35	-38	3
157	5	30	-20	3
158	0	28	-132	8
157	5	31	-131	8
157	3	27	-102	13
157	4	31	-80	12
157	6	28	-10	4
157	3	19	-14	-6
158	4	21	16	-18
158	4	23	28	-25
157	4	22	117	-24
157	0	17	236	-14
157	-3	15	101	-6
157	-3	15	-12	2
158	3	19	69	8
157	5	14	-5	-1
158	2	9	-33	-4
157	0	17	-22	0
157	3	21	-42	22
158	5	18	-22	34
157	4	15	-67	25
157	4	14	25	32
157	8	18	85	29
158	8	17	54	23
158	4	12	32	18
157	3	11	16	7
158	3	9	-27	-21
157	5	12	-60	-50
157	6	19	-42	-72
158	1	14	37	-71
158	3	11	111	-55
158	5	15	37	-35
157	8	15	33	-4
158	8	15	23	11
157	8	12	47	20
158	7	12	107	21
158	4	13	62	13
158	4	6	17	11
158	5	11	-116	9
158	8	15	-133	18
158	11	14	-53	15
158	4	19	-78	10
157	4	15	-51	2
158	-1	14	-1	-8
157	5	19	19	3
158	10	19	49	17
158	6	17	68	16
157	7	15	110	12
158	5	18	37	8
157	5	17	-26	14
157	4	20	32	17
158	7	18	25	6
158	6	15	5	-1
158	1	16	-18	2
158	4	20	-56	9
158	5	23	-98	17
158	5	18	-82	25
158	1	16	-28	25
157	1	13	-5	23
158	0	9	161	22
158	5	11	144	11
157	15	21	-12	2
158	14	15	80	-11
157	7	12	-12	-19
158	4	17	-65	-23
159	0	15	-28	-33
158	-7	15	-124	-34
157	-4	18	-91	-28
158	1	16	1	-8
156	5	10	42	-11
158	9	21	18	-16
157	12	25	111	-2
157	12	18	102	3
158	11	15	41	9
158	6	15	69	2
157	2	15	20	0
157	5	20	1	13
157	7	23	-26	20
157	2	17	46	13
157	-3	12	64	13
157	3	16	17	15
157	5	21	-13	15
158	5	21	-152	6
157	2	18	-74	-1
158	-1	9	84	-2
157	1	18	133	3
158	5	30	-12	-2
157	10	16	-96	-17
157	10	15	5	-24
158	5	16	-49	-28
157	5	11	2	-15
158	15	15	26	-15
157	15	18	44	-20
157	9	28	36	-9
158	9	25	-24	8
158	5	19	-22	16
158	4	19	-37	9
157	4	22	63	10
158	1	13	86	13
157	0	15	75	16
157	5	24	47	25
158	8	17	41	20
157	3	15	-108	14
157	2	15	-282	32
157	3	19	-70	37
158	8	19	41	33
157	7	16	48	30
158	9	26	69	35
157	7	22	38	24
158	7	13	20	-8
157	4	14	-1	-43
158	4	14	42	-86
157	3	15	77	-94
158	3	18	46	-74
157	4	18	18	-29
157	5	19	33	-2
157	3	16	-3	2
158	4	15	-46	13
157	10	9	-22	18
159	8	7	-9	23
158	5	15	-8	13
157	5	17	-32	14
158	2	18	-48	22
157	5	22	62	25
158	3	17	145	24
158	5	19	56	8
157	3	18	4	-1
157	4	19	1	1
157	7	19	-2	3
158	5	19	31	10
157	8	23	43	13
158	6	17	53	11
158	6	20	38	17
158	4	19	-37	12
158	4	19	-125	10
157	5	26	-75	9
157	9	22	33	0
157	9	21	77	2
157	4	21	21	2
158	4	13	-18	2
158	1	11	58	-5
158	4	15	77	-13
158	3	18	41	-24
159	4	19	-6	-24
158	3	21	-47	-21
158	4	18	-28	-17
157	5	22	30	0
157	7	21	-2	-3
157	5	15	-64	-4
158	1	15	-69	-4
158	2	14	-39	-1
158	5	19	-4	3
157	4	22	9	2
157	7	18	1	6
158	7	20	-51	10
158	7	25	-48	16
158	3	22	-55	17
158	5	22	-96	16
157	5	21	-69	14
158	5	19	3	15
158	4	18	68	4
158	3	15	122	-4
157	5	15	208	-2
157	7	15	167	-2
157	7	16	40	-4
158	5	17	17	-9
157	6	18	1	-1
158	8	20	52	7
158	4	18	102	5
158	6	18	65	10
158	7	19	43	14
158	3	18	63	12
158	3	21	90	12
157	3	19	-17	16
158	6	19	-205	17
158	4	15	-172	6
158	5	14	-11	-8
157	7	20	-77	-14
158	7	21	-116	-12
158	1	22	-7	-11
158	1	21	29	-3
157	5	12	-94	2
157	3	9	-105	2
158	5	14	59	-3
158	3	14	174	-10
158	6	16	105	-18
157	4	23	-49	-25
157	5	21	68	-33
158	3	17	52	-44
158	2	11	-44	-33
158	2	10	-26	-19
157	3	16	50	7
158	5	13	155	17
158	11	20	92	15
158	14	23	97	20
158	11	24	35	14
157	6	21	-74	14
157	0	16	-43	16
157	-4	18	-33	17
158	-7	18	-29	15
157	1	19	0	20
158	5	22	16	11
157	3	21	8	-5
158	7	19	43	7
157	3	17	60	3
157	0	12	-1	-6
157	5	16	-66	0
158	15	27	-88	9
158	17	22	-69	14
158	9	21	-12	13
157	9	20	17	16
158	10	19	-47	10
157	8	24	-58	15
158	10	20	-56	19
158	8	17	-24	0
158	8	22	33	-9
158	3	17	104	-13
157	3	14	140	-8
157	6	15	86	-2
157	2	10	22	-4
158	5	14	-20	-1
157	9	18	-1	-1
158	4	12	19	-2
158	4	14	-10	-4
158	7	22	-51	-13
157	7	26	-53	-12
158	7	17	-24	-31
158	1	13	32	-46
157	0	13	34	-28
159	0	16	77	-4
158	3	21	130	5
157	3	17	50	10
158	3	21	-18	19
158	7	18	-52	14
157	2	17	-71	15
158	1	21	-40	20
158	5	25	-83	22
157	4	24	-114	24
157	7	23	-31	16
159	9	26	54	24
157	6	18	150	25
157	3	14	94	16
157	2	12	-6	9
158	4	17	-64	-4
157	4	22	-77	-12
158	5	18	4	-14
157	5	23	-25	-13
158	6	19	12	-8
158	4	15	95	-6
158	2	14	101	-12
157	4	13	59	0
158	9	15	171	8
157	6	17	271	-10
158	1	16	188	-14
158	4	15	70	-12
158	7	21	-85	1
157	8	19	-88	7
158	4	21	-141	17
157	6	22	-164	27
159	5	14	-135	20
157	1	18	-135	15
158	3	26	-27	15
158	5	24	4	9
157	2	17	122	-2
157	0	18	124	-1
157	2	21	-30	-20
158	0	12	0	-23
158	1	17	3	-4
158	4	20	-38	5
158	7	16	30	-2
158	8	17	25	-11
158	6	18	-112	7
157	9	26	-142	9
158	6	21	-20	1
158	4	17	-23	3
158	5	19	-36	4
157	2	14	81	1
159	-2	15	122	-6
158	-3	12	69	-8
158	1	14	44	-13
158	3	18	19	-11
158	11	17	37	-9
157	12	18	50	-21
157	11	18	25	-19
158	14	17	59	-14
157	10	17	31	-6
158	8	14	34	-2
157	4	14	27	-2
157	5	14	20	15
158	8	18	-21	13
158	7	18	-85	21
158	8	16	-63	28
158	5	13	-21	24
158	5	14	10	17
157	4	17	-34	4
158	3	17	-2	10
158	7	18	-16	2
158	5	17	-51	4
158	5	23	-19	3
157	8	22	-36	0
157	11	24	9	10
158	10	26	64	17
157	8	19	111	25
158	8	14	121	21
158	11	11	38	4
158	7	17	32	0
157	1	14	72	11
158	0	21	21	3
157	-2	26	-8	2
158	-3	20	-14	11
157	1	15	-7	14
158	7	19	5	12
158	3	22	-64	2
158	-1	16	-49	-4
157	5	25	58	-15
158	7	21	21	-34
157	7	15	-31	-51
158	5	14	-18	-39
158	7	17	-89	-15
158	6	21	-52	-4
157	5	19	15	11
158	4	22	23	15
158	4	22	39	20
157	5	24	15	20
158	3	18	58	3
157	2	17	156	-9
157	1	15	221	-19
157	0	15	49	-23
157	7	21	-134	-16
157	7	12	-42	-12
158	3	4	-109	-18
158	1	12	-112	-19
158	8	22	-44	-17
158	8	19	-79	-18
158	5	15	8	-12
158	7	17	-20	6
157	7	16	-29	13
158	4	14	66	9
159	1	18	120	16
157	3	20	45	22
158	3	18	-12	26
157	4	19	20	30
158	7	26	-73	33
159	3	22	28	25
157	2	15	89	23
158	5	22	29	30
157	8	15	-18	24
158	6	15	-50	15
158	4	17	-15	-5
157	5	21	-33	-12
157	8	29	107	-15
157	9	22	123	-24
157	11	24	100	-28
157	9	17	97	-25
157	4	12	15	-20
157	3	13	4	-10
157	1	11	52	4
158	4	14	118	10
157	8	22	27	16
158	8	25	-27	18
157	8	18	-55	14
159	1	16	-109	4
158	3	20	-102	-1
158	5	22	-73	-2
157	2	19	-36	-2
158	4	15	4	-4
157	0	11	-44	-3
158	-2	17	-90	10
157	3	17	21	13
158	4	19	85	15
157	3	23	85	19
157	12	19	74	10
157	22	24	43	8
159	12	19	34	8
158	4	17	24	-3
157	9	22	-55	-12
157	10	20	-102	-14
158	7	19	-60	-13
157	8	21	-40	-16
158	4	18	-23	-14
158	3	18	-41	-7
157	4	21	-37	3
158	5	15	30	2
158	6	14	38	-2
157	3	18	63	13
158	4	19	111	19
158	7	24	111	19
157	4	24	67	18
157	4	22	-30	27
157	7	21	-108	34
157	3	10	-159	25
157	2	2	-77	1
157	5	5	157	-32
158	9	19	241	-51
157	7	29	-29	-44
158	3	23	-113	-20
157	-1	14	33	-12
158	-8	13	-19	-10
158	-4	15	-40	-10
157	4	20	-48	-16
158	8	21	21	-6
157	5	21	42	11
158	7	27	69	19
158	15	22	91	7
158	10	17	-43	3
158	9	19	-71	14
158	8	21	-84	10
157	4	21	-85	15
158	5	23	40	17
158	3	19	47	15
158	-1	16	-54	12
158	-1	14	78	2
158	0	7	201	8
158	0	11	187	7
157	5	23	156	0
157	5	21	109	8
158	5	18	101	12
157	7	21	-14	17
157	9	20	-143	20
158	10	21	-46	17
158	6	17	-30	23
157	5	19	-63	14
157	1	17	85	-3
158	5	14	66	-10
158	4	18	-66	-22
158	2	16	-56	-38
158	5	20	-15	-36
159	1	19	-47	-29
158	2	18	5	-18
158	3	19	10	-5
157	6	22	10	-2
158	7	27	8	0
157	5	16	-39	-12
157	0	13	-20	-8
158	-1	13	-4	2
158	0	15	-50	-1
157	5	26	-37	0
157	9	19	68	13
158	10	19	9	8
158	9	24	-11	7
158	7	19	-38	9
157	3	19	-55	6
157	5	19	-10	15
158	7	18	-35	13
158	6	15	5	21
158	6	16	33	14
157	4	17	95	6
157	5	18	30	8
158	6	8	-48	2
158	3	4	-29	4
157	4	16	-87	2
157	3	21	-82	11
158	3	15	14	11
158	11	10	58	12
157	14	17	-48	4
158	10	20	-32	-7
158	7	14	63	-11
158	3	14	85	-6
158	2	19	171	-10
158	5	23	161	-2
157	5	19	92	13
157	5	24	-6	12
158	9	26	-25	21
157	8	22	57	11
157	3	21	12	0
158	5	17	38	0
157	5	14	97	-9
157	4	14	69	-9
158	8	22	-5	-11
157	5	19	-106	-17
158	1	17	-81	-22
157	0	22	-54	-35
158	3	24	-71	-22
158	3	24	-22	3
157	5	24	60	6
157	4	20	161	14
157	3	21	136	10
157	3	18	-29	7
157	2	16	-101	4
158	5	20	-112	5
158	7	23	-56	17
158	8	23	-1	13
157	4	14	12	-4
158	1	15	80	-14
157	2	17	67	-13
157	7	18	49	-12
157	6	20	-42	-13
158	7	17	-110	-10
157	4	14	-66	4
158	8	16	-6	16
158	4	17	37	14
158	1	15	-43	22
158	8	19	-56	30
157	6	18	26	26
157	1	14	110	16
157	1	13	102	-2
158	1	13	65	-12
158	5	17	63	-10
158	6	15	-18	-9
157	5	18	-92	-2
158	3	19	-117	9
158	3	15	-42	10
157	8	17	90	11
158	13	15	9	0
158	9	24	-88	-9
158	2	25	-63	-22
158	-5	24	-36	-13
158	-5	21	20	-1
158	-3	14	43	-4
157	0	15	101	2
157	10	17	129	-2
157	17	18	93	-3
158	10	16	63	-15
158	5	15	34	-16
157	9	17	35	-14
158	11	22	20	-4
158	12	24	38	12
157	10	17	37	12
158	5	13	-44	14
157	4	14	-180	10
157	4	15	-284	17
157	7	21	-124	14
158	6	18	52	-1
158	8	11	177	4
157	7	14	321	12
158	3	17	108	13
158	4	21	-19	8
157	3	19	3	6
157	6	24	-102	3
158	6	26	-9	3
157	4	21	2	-2
158	7	20	11	10
157	5	12	110	16
158	7	15	111	9
158	3	14	50	-1
158	1	16	-31	-5
158	1	22	-96	-4
159	3	21	-96	-3
158	5	22	10	-1
158	7	20	43	2
157	5	19	70	-2
158	4	15	47	-7
157	2	15	80	-6
157	3	18	57	-12
158	5	17	-152	-15
157	4	17	-128	-12
157	4	23	-93	-5
158	9	26	-38	-8
157	3	15	9	-14
159	3	21	-34	-12
157	6	16	-42	-16
157	2	14	-99	3
157	4	25	-37	15
157	7	19	10	27
158	3	18	51	31
157	3	15	51	31
157	7	16	-5	29
158	10	23	41	11
158	10	22	45	6
158	11	19	39	-12
158	7	22	48	-20
158	10	25	9	-17
157	4	21	-9	-11
158	3	17	60	-10
157	6	18	101	-1
157	7	19	116	-2
158	3	11	64	-12
158	3	15	-14	-11
158	3	17	-11	-12
158	4	8	-31	-10
158	2	17	10	-1
158	2	18	10	2
157	3	18	4	7
157	1	18	57	21
157	2	19	37	28
158	3	25	14	27
158	0	22	-18	23
158	1	21	-23	16
158	4	22	-72	10
157	7	26	-51	9
158	7	26	27	2
158	11	23	8	-3
158	5	22	8	0
157	8	21	34	6
158	4	13	83	-4
158	1	11	-11	-21
158	1	14	-91	-12
158	4	13	-65	-6
157	8	18	-98	-8
158	9	18	-107	-15
158	5	15	-85	-10
158	4	15	-14	1
158	3	15	139	-8
158	1	13	202	-5
158	5	13	162	1
157	4	14	88	2
158	8	15	16	-3
157	6	17	-7	-6
158	4	19	1	7
157	5	15	8	22
158	6	13	-10	27
157	8	18	-1	33
157	6	15	-5	28
158	7	16	-17	18
158	11	22	-7	11
158	8	19	15	3
158	5	19	-23	6
158	12	20	-51	-1
158	12	16	-72	-6
157	10	16	-130	-15
158	-1	12	20	-26
157	-7	10	220	-27
157	-6	8	182	-21
157	-5	14	52	-6
157	3	18	44	6
157	5	23	-58	9
158	4	27	-42	15
158	3	22	-13	17
158	1	23	-48	9
158	5	19	53	-3
158	6	24	0	-12
158	3	30	27	-8
158	3	17	33	-5
157	3	12	9	2
157	3	9	33	7
158	3	15	-17	4
157	5	27	-48	-2
157	7	24	-70	-10
157	8	24	-34	-18
157	8	21	38	-11
157	7	14	13	10
157	8	17	-69	10
158	6	17	-18	13
157	4	17	-47	21
158	8	24	-63	14
157	12	23	21	13
157	12	19	45	11
158	9	22	87	10
158	6	19	52	5
157	5	18	-7	-1
158	4	10	-51	-7
158	2	11	-38	-4
158	5	21	-4	-7
157	4	18	40	-23
157	4	18	86	-21
157	7	19	107	-14
157	3	16	146	11
157	3	13	68	11
158	1	11	-35	7
158	5	16	-66	19
158	10	24	-82	3
157	5	24	-144	-10
158	10	25	-165	-16
158	5	21	-57	-11
157	2	17	24	-2
157	2	22	103	7
158	4	21	154	20
158	8	20	111	9
157	7	18	-53	-6
157	2	14	-133	-12
158	3	15	-17	-4
158	2	15	111	0
158	2	14	170	-3
157	3	14	91	2
158	3	14	74	4
158	4	15	77	11
158	7	21	17	18
157	8	19	-33	15
157	5	19	-97	3
158	6	22	-9	-3
158	8	24	103	-9
158	4	22	25	-11
158	3	15	-70	-10
158	4	16	-84	-11
157	2	15	-56	-18
158	1	17	-3	-13
158	4	17	58	11
158	3	18	43	21
158	8	24	-54	29
158	9	19	13	33
158	6	17	19	25
157	9	19	-53	9
157	6	19	-53	-3
158	5	22	-97	-13
158	7	18	-49	-8
158	6	15	127	3
157	5	11	207	7
158	6	16	-4	10
157	7	17	-45	13
158	6	20	-51	13
158	10	21	-107	7
157	7	19	-9	-6
158	5	22	25	-12
158	3	20	166	-6
157	1	17	199	-1
157	3	15	45	6
157	7	15	-100	-1
157	6	19	6	-10
158	5	19	43	-26
158	2	9	-15	-34
158	3	16	32	-13
157	2	22	-30	-5
158	3	18	-10	2
157	4	20	-53	15
157	7	22	-54	17
158	7	21	-40	13
157	7	22	-22	14
157	2	17	40	18
157	3	17	1	9
158	7	20	27	6
157	6	19	21	8
157	6	24	31	5
157	3	22	16	1
158	4	19	-2	-7
157	5	19	18	-24
157	5	15	-7	-22
157	5	14	-33	-8
157	8	26	-24	4
157	6	25	61	7
159	1	10	40	10
158	4	13	-11	25
158	4	11	-54	22
157	6	12	-79	4
158	3	10	-125	-9
158	6	17	-77	-28
158	5	21	87	-26
157	3	13	67	-8
158	3	14	133	-4
158	3	18	216	2
157	6	18	186	18
157	14	19	38	16
158	12	19	-40	8
157	3	15	-40	4
158	0	17	-63	-2
157	-5	16	17	2
158	-4	19	33	7
158	0	24	-4	2
158	4	25	-55	2
157	10	24	-24	0
158	7	22	-20	9
157	8	19	-9	10
158	5	19	26	10
158	4	24	5	15
157	4	19	-7	10
158	4	22	-17	4
157	6	21	10	5
158	7	19	28	2
158	5	18	55	3
158	2	15	-18	9
158	4	7	-65	0
158	2	8	-51	-17
158	2	13	-152	-25
157	6	19	-99	-18
158	8	23	81	-16
157	5	7	141	-7
157	5	13	10	0
158	8	25	-78	1
158	8	26	77	7
157	8	20	79	10
159	8	14	38	2
157	7	20	36	-1
157	7	21	92	-1
158	7	23	83	-7
158	5	21	-15	-5
158	5	21	7	-4
158	5	15	-64	-6
158	4	13	-64	-1
158	5	15	-31	9
158	1	16	8	18
158	4	18	21	22
157	5	21	4	23
158	5	21	56	23
158	5	22	83	20
158	7	23	101	20
158	6	21	28	13
158	5	20	-17	4
158	7	18	-44	-4
157	5	22	-40	-13
158	4	21	-33	-16
158	3	17	-32	-13
157	3	16	14	-6
158	2	11	28	4
157	3	15	-8	0
158	4	18	-106	4
157	2	21	-77	8
157	3	16	15	4
157	4	15	4	10
157	9	18	-85	-8
157	7	19	-17	-12
157	6	21	102	-14
158	5	16	-46	-16
157	4	14	-4	-12
157	1	18	223	-12
157	3	21	243	7
158	7	21	97	11
158	4	15	-72	12
158	3	19	-28	9
157	1	16	87	3
158	1	11	104	-10
157	5	18	-11	-8
157	5	18	-57	2
157	5	16	-16	-2
158	5	17	-30	8
157	5	17	8	15
157	5	17	-13	27
157	5	18	-9	24
158	8	22	-9	16
157	8	22	11	10
157	6	19	36	-6
157	5	17	-19	-25
157	4	14	-18	-43
158	4	18	-20	-38
157	8	23	-23	-13
157	6	19	-63	-3
157	5	19	-109	-5
159	4	19	-101	2
158	4	21	-69	10
157	10	21	-24	16
158	10	20	-16	6
158	4	9	23	3
158	2	13	51	16
157	3	19	49	20
158	6	21	68	23
158	3	18	47	16
158	4	19	28	4
157	5	19	34	4
158	7	21	57	1
157	4	25	71	-14
158	3	21	65	-12
157	5	15	148	14
158	3	11	66	18
157	4	14	-19	29
158	4	19	-2	31
157	5	15	-124	16
159	4	12	-154	10
157	2	15	-98	3
157	7	15	25	-16
158	4	11	190	-48
157	4	18	136	-53
158	8	26	-7	-36
157	6	24	-4	-21
158	6	25	-66	-7
157	5	24	-88	10
158	5	19	-43	10
158	2	15	-14	14
158	5	17	39	19
158	8	17	10	13
157	3	15	23	6
158	5	17	31	7
158	9	22	27	3
157	3	20	24	-2
158	3	17	41	9
158	9	15	43	11
158	10	17	85	8
158	6	14	80	4
158	3	18	19	2
157	0	21	8	0
157	-5	18	-59	5
158	-2	24	-63	0
157	1	24	-39	-1
157	5	22	-24	9
158	9	25	-3	2
157	5	24	-20	9
158	4	21	-36	7
158	5	14	-6	-9
157	4	17	60	0
157	4	21	113	6
157	7	18	60	8
157	7	16	-21	3
157	7	17	-2	4
157	8	18	1	3
158	9	17	-29	-1
158	10	19	-89	-1
157	8	18	-82	6
157	8	16	-54	4
157	3	15	4	-2
158	5	17	49	0
158	8	17	-53	-10
158	6	11	-67	-2
158	3	10	-12	9
157	3	14	71	2
158	5	18	167	7
157	8	20	102	6
158	10	19	44	6
158	5	16	55	0
157	4	19	33	-7
158	5	19	-13	-7
158	4	15	-8	-6
158	4	22	-2	0
157	7	24	-15	-1
157	11	21	16	8
158	9	17	47	4
157	6	13	116	-3
157	7	21	55	-16
157	7	23	-62	-22
158	8	21	-28	-4
157	5	21	-61	-6
157	3	17	-64	-8
158	1	12	31	2
157	-1	5	48	7
159	1	14	18	18
157	2	18	5	16
158	3	15	16	15
158	8	15	-9	5
157	7	15	-26	-4
158	4	21	-28	-5
158	4	18	-35	-5
157	2	14	-57	-1
158	3	22	-92	-9
157	2	18	-50	-6
158	-1	16	-3	-8
158	4	23	23	-6
157	5	22	84	11
158	5	25	127	17
157	7	19	142	19
157	5	14	83	17
157	1	13	-10	8
158	1	15	-29	2
157	8	22	-48	-13
158	6	19	-3	-19
157	7	16	21	-23
159	5	16	-56	-25
157	4	21	-31	-9
157	5	21	-13	-2
158	3	19	-43	5
158	5	22	-5	11
158	4	19	15	13
158	3	24	10	20
157	3	21	40	22
158	2	19	116	19
158	7	23	73	10
157	7	22	-2	2
158	5	21	68	9
158	7	14	13	-1
157	4	7	2	-19
157	1	10	-23	-9
158	9	21	-102	-6
158	9	19	-107	2
157	7	16	-87	15
157	8	19	25	16
158	7	16	94	7
157	1	17	155	3
157	3	21	57	1
158	3	20	-36	-9
157	1	17	5	3
158	3	21	-41	9
157	6	19	-49	3
158	5	19	-11	7
159	8	24	43	2
157	8	21	81	2
157	10	19	68	0
157	11	19	74	2
158	5	15	50	-3
158	3	11	-3	-3
158	5	15	-5	0
158	7	18	-44	-5
158	3	15	-149	-8
159	3	15	-152	0
157	5	17	-7	-6
157	2	14	65	-8
157	7	16	130	-2
157	5	18	109	2
157	5	22	-116	11
157	5	20	-38	9
157	1	15	-24	11
158	3	18	-31	10
158	5	17	72	8
157	8	14	-16	9
158	7	22	-37	14
158	9	22	-2	11
157	9	20	6	10
157	5	20	-11	7
157	3	19	46	0
158	4	22	81	0
158	4	19	58	-5
157	3	18	9	-1
158	10	19	37	-6
157	9	18	78	-18
157	11	18	43	-28
157	15	19	38	-32
158	16	18	-4	-23
158	8	17	-34	-20
158	1	17	-49	-11
158	-4	15	-26	0
158	-11	17	-10	9
158	-6	15	-3	15
157	1	15	37	14
157	5	19	64	10
158	5	23	54	2
158	4	19	27	0
157	5	18	11	-3
158	3	13	-27	3
157	1	12	-77	16
157	6	18	-47	12
157	5	15	-10	11
157	3	21	-31	11
158	5	23	4	8
158	8	21	35	2
158	10	23	56	-5
158	8	25	28	1
158	4	19	32	0
157	3	11	41	13
158	6	23	-33	14
158	6	24	23	5
158	7	22	50	7
157	10	19	47	7
157	8	17	-24	7
159	3	18	-85	3
158	6	16	5	1
157	6	19	13	-6
157	5	16	8	-6
157	4	14	-24	-3
157	3	17	-61	-5
157	1	21	-42	-4
158	3	19	4	13
157	7	22	19	25
157	4	22	10	30
157	5	21	31	26
158	6	22	27	4
157	1	18	22	-6
158	5	22	23	-12
158	3	19	32	-22
158	1	7	30	-34
158	4	5	80	-43
158	5	14	90	-27
158	7	17	-11	2
158	8	21	-47	10
158	7	23	3	9
157	6	21	48	7
158	8	24	41	2
158	9	19	0	4
158	5	15	-55	1
158	6	15	-59	-7
158	5	20	-56	-19
158	6	22	-41	-23
158	3	19	1	-17
157	4	17	-82	-10
158	1	15	-131	-8
158	0	16	151	-3
158	3	14	260	16
157	3	22	-29	18
158	4	24	35	18
158	1	13	58	23
157	-1	14	-20	15
158	0	12	39	13
158	5	18	-5	24
157	7	19	2	20
157	4	16	-55	15
158	6	18	-22	8
157	1	17	17	2
157	1	17	61	-4
158	3	19	127	-10
157	3	15	61	-2
157	7	18	-45	11
158	13	25	-72	-9
158	8	17	-50	-5
158	7	19	-39	9
157	8	26	2	2
157	9	23	-47	14
158	8	24	-94	8
158	7	23	-120	-5
158	5	21	-126	-2
157	2	18	-88	2
157	3	12	50	0
157	6	7	198	12
157	3	9	163	22
158	7	15	61	18
158	7	21	31	4
157	5	22	33	-10
157	5	17	15	-16
158	6	15	8	-18
157	4	17	20	-11
158	3	14	54	-19
158	3	20	60	-21
158	5	21	34	-19
157	7	17	43	-10
158	4	22	59	-3
158	6	21	-35	-3
158	4	19	-78	14
158	3	17	7	10
158	12	15	39	7
158	12	15	-32	-2
158	4	18	-62	-14
158	-2	15	53	-5
158	-3	13	37	2
158	-2	20	-40	7
158	-4	23	-15	10
157	2	21	-8	10
157	5	19	-64	0
158	4	13	-40	-1
157	3	14	48	10
158	3	18	2	10
157	5	18	-1	8
157	9	17	37	1
157	6	16	56	1
158	8	19	56	0
157	13	22	14	8
157	9	17	-1	9
158	8	18	1	9
157	8	18	8	7
157	6	17	21	4
158	8	22	25	12
157	8	24	43	16
158	5	23	77	11
157	3	17	14	10
158	5	18	-132	11
157	4	18	-107	0
157	4	18	-9	3
157	10	19	-30	-2
157	12	25	3	-7
158	8	22	35	-11
158	6	25	74	-18
158	6	22	101	-12
157	5	15	41	-13
157	8	17	23	4
158	7	22	-23	6
158	3	20	-36	11
158	3	19	-60	28
158	5	16	-119	23
157	2	8	-90	17
158	2	19	-2	12
158	5	17	75	-1
158	1	11	2	-23
157	3	24	-46	-24
157	9	23	102	-30
157	1	19	152	-28
157	1	19	92	-25
158	1	9	13	-31
157	1	18	-72	-17
158	5	23	-51	-10
158	3	13	14	7
157	7	19	19	15
157	12	16	16	15
158	12	15	97	20
158	4	15	49	8
158	4	10	10	6
157	4	19	0	3
158	3	19	-89	10
157	5	23	-81	19
158	8	20	-13	15
158	3	19	31	7
157	3	22	58	9
157	2	11	61	-6
158	-1	11	87	-6
157	3	15	103	19
158	7	23	21	6
157	4	23	-43	-3
158	4	19	-82	-1
158	6	19	-94	5
157	5	17	-77	8
158	5	22	-16	8
158	7	21	43	13
158	7	19	92	7
157	3	18	74	-3
157	3	15	6	-5
157	9	18	38	-7
159	5	22	-13	-14
158	1	19	-37	-3
159	3	24	26	2
157	1	21	48	2
158	2	20	-15	3
158	7	17	-135	1
158	7	18	-95	4
157	9	21	-6	0
158	10	21	-12	8
158	10	25	20	4
157	5	23	60	6
157	6	25	85	12
159	7	21	73	13
157	7	19	3	12
158	5	15	-20	4
157	3	8	5	-8
158	6	15	51	-10
157	7	15	75	-6
157	4	14	104	-8
157	1	20	-3	-4
158	-2	18	-95	-10
157	1	17	25	-18
157	-1	17	15	-9
158	4	23	-65	4
158	7	24	-7	8
157	4	15	16	8
158	4	19	-70	14
157	7	19	-19	9
157	4	18	6	11
158	7	21	8	13
157	9	13	85	18
157	7	13	38	23
158	5	22	36	19
158	1	22	29	11
157	3	10	56	-5
158	2	12	57	-15
158	4	17	-12	-30
158	2	19	-12	-24
157	-1	21	-52	-10
157	-1	21	-27	-4
158	4	17	-1	2
157	8	17	-24	7
158	11	19	-25	24
158	9	21	-20	29
158	7	24	-16	15
157	4	17	-11	1
158	-1	13	30	-9
158	8	13	48	-21
158	12	15	22	-21
158	8	17	-3	-6
158	7	21	-7	-14
158	3	19	-30	-17
158	0	16	-38	-10
157	0	18	-18	3
157	6	19	4	18
158	8	18	78	23
157	5	15	87	26
157	4	13	31	20
158	5	16	26	6
157	4	13	52	-13
158	4	11	19	-17
157	8	22	-29	-11
158	8	24	59	-14
158	6	22	73	-16
157	8	19	-31	-1
158	7	15	-1	8
157	7	15	60	6
158	3	15	-6	11
157	2	18	-31	7
158	2	17	-54	7
157	2	13	-139	6
158	3	15	-72	3
158	2	21	-23	-6
157	4	24	28	-9
158	5	21	67	-1
157	5	20	28	-1
158	5	15	9	-3
158	8	21	-15	-5
158	9	20	37	0
157	6	19	28	-5
157	2	19	22	2
157	4	14	53	10
158	4	15	65	-1
158	5	20	51	-7
158	9	25	41	2
158	9	19	56	10
157	2	15	9	19
158	4	19	-17	20
158	4	22	-3	4
157	4	19	-22	-2
157	3	19	-103	2
157	5	17	-94	1
157	5	17	-78	0
158	5	18	-57	5
157	5	16	78	9
159	4	22	183	7
158	6	24	111	8
158	10	22	24	10
157	8	21	101	7
158	5	19	-11	7
157	5	18	-72	4
158	4	18	-24	7
157	4	20	-58	1
158	4	21	-34	4
157	7	24	-28	10
158	7	18	-6	8
157	5	12	-11	-5
157	5	13	33	-15
157	4	14	81	-9
158	1	6	37	-1
158	4	14	6	4
158	9	19	10	-12
158	7	18	-6	-23
157	10	24	-49	-21
158	7	21	-53	-9
158	6	22	-23	8
158	2	15	-13	10
157	3	14	-32	-4
158	4	17	-9	-1
157	4	16	19	12
158	5	20	38	17
157	5	19	18	18
158	5	19	18	17
158	2	21	53	16
157	5	22	27	10
157	5	15	5	2
158	3	15	5	-7
158	6	21	36	-16
158	3	18	40	-25
157	-1	15	23	-12
158	3	17	50	-2
157	7	17	30	-4
157	5	22	-59	15
157	6	22	-94	20
157	3	15	-21	19
158	5	15	58	3
158	2	21	77	-19
157	4	25	-40	-16
157	7	18	-161	7
157	5	8	16	11
157	1	9	151	-7
158	3	16	104	-14
158	8	13	89	-13
158	9	17	85	-6
157	8	26	42	9
158	11	29	-20	17
157	7	21	22	12
157	1	16	-46	6
158	0	14	-70	4
158	-1	12	-67	14
158	3	18	-120	-1
158	3	16	-42	-9
157	2	19	-19	-8
157	7	19	54	-13
158	8	21	97	-16
158	9	25	69	-25
157	7	24	2	-20
157	5	19	26	-17
158	3	15	64	8
158	8	19	47	26
157	5	17	80	23
158	3	14	6	19
158	4	18	10	19
158	8	22	-54	15
157	8	19	-75	2
158	5	14	-33	-4
158	5	15	-27	-10
158	7	19	-4	-7
157	6	16	-32	-1
157	4	14	-8	-1
157	3	19	-15	10
157	4	22	1	14
157	5	18	-2	19
159	4	13	-23	12
158	3	18	-23	-6
158	5	17	-6	-13
157	2	15	21	-23
157	0	22	21	-7
156	4	23	36	7
158	9	21	15	8
157	9	23	25	13
157	9	22	56	13
157	5	14	68	16
157	3	7	43	5
158	5	15	32	-8
157	5	15	66	-4
158	11	13	0	0
157	9	20	18	-4
157	6	22	52	-2
158	0	15	-110	2
157	0	20	-192	22
158	5	26	-100	23
158	3	18	87	2
158	2	18	144	-5
158	3	17	108	-13
158	3	18	100	-4
158	9	21	52	-3
158	6	15	-12	4
158	4	18	-61	7
158	3	19	-51	4
158	5	22	-43	6
158	6	25	-64	-2
157	5	21	-61	6
158	4	17	-31	3
157	5	19	-24	2
158	6	20	46	10
157	5	17	95	3
158	6	21	64	8
157	5	18	4	7
157	4	22	10	-1
157	5	19	62	2
157	5	18	12	-8
157	8	17	-44	-10
159	6	12	-35	-18
157	5	14	5	-24
158	6	15	27	-16
158	7	15	17	-14
158	6	17	-30	2
157	4	18	-32	18
157	1	16	-2	22
157	4	17	28	14
158	6	15	87	2
158	2	15	80	-2
157	5	23	37	-9
158	4	19	34	-24
157	1	14	45	-24
158	2	17	-35	-6
157	5	18	-56	0
157	7	21	8	-10
157	1	19	-5	-3
158	4	17	-22	1
158	10	20	-4	4
158	7	23	-10	11
158	8	22	-18	11
157	8	16	-67	17
157	5	16	-73	16
157	1	17	6	9
158	1	19	-60	2
158	3	21	-61	2
157	1	15	90	7
158	1	14	170	2
157	0	14	157	1
157	2	17	128	8
158	5	17	43	9
157	10	15	-88	-3
158	8	19	-70	-2
157	11	17	-101	3
158	9	20	-100	3
157	8	20	14	13
157	2	17	52	11
158	4	22	156	4
158	4	23	132	13
157	1	19	1	20
158	4	19	-2	22
159	4	21	-42	21
158	4	15	-27	8
157	7	17	38	-8
158	8	21	26	-10
157	9	20	-38	-19
158	8	17	-159	-38
157	5	15	-129	-30
158	5	20	-41	-24
158	3	19	69	-10
158	1	17	146	7
157	1	17	44	7
157	8	23	41	11
158	9	17	16	7
158	4	17	-47	15
157	5	21	-47	21
158	5	18	-35	16
157	10	18	32	18
157	15	17	31	11
158	12	24	41	3
158	5	21	94	-9
158	3	17	72	-12
159	0	18	-19	-13
157	0	20	-31	-17
158	2	17	-15	-11
158	5	15	16	-12
158	4	16	12	4
157	2	17	-21	15
158	5	15	43	19
158	2	14	47	19
159	4	14	22	12
157	2	14	19	23
158	1	15	12	27
157	3	17	74	24
158	3	19	94	23
158	5	26	24	2
157	11	28	-18	-24
158	10	19	-35	-44
157	5	17	-62	-54
158	8	21	-92	-56
157	7	17	-108	-36
158	7	19	-54	-1
159	9	19	16	6
157	8	12	69	17
158	7	16	72	26
158	7	18	22	22
158	4	19	-10	21
157	3	17	-21	13
157	5	14	-27	4
158	8	18	6	3
157	2	22	53	4
157	3	24	81	6
157	4	23	97	-1
159	1	13	74	-4
158	2	13	-13	3
157	6	17	-75	-2
158	4	17	-21	-9
158	0	13	-30	4
159	3	11	-39	1
157	3	17	4	10
157	6	17	24	11
158	1	11	-27	14
158	-3	14	-100	33
157	3	22	-58	17
157	3	21	-33	-1
158	4	12	10	-5
157	4	15	32	-13
158	5	21	34	-25
157	6	27	28	-20
158	7	24	10	-17
157	4	22	40	-19
157	5	22	65	-20
157	8	18	70	-25
157	7	23	28	-9
158	9	21	18	-1
158	9	22	52	10
157	5	13	38	21
159	5	11	-78	28
157	8	17	-180	28
158	3	13	-128	23
157	0	11	-94	28
157	5	18	-61	28
157	5	12	49	31
158	2	12	132	27
158	5	22	99	6
157	7	19	69	-20
158	8	22	132	-37
157	10	25	72	-37
158	9	21	50	-51
158	5	25	162	-39
158	7	21	88	-8
157	8	20	-27	-7
158	6	21	10	-6
158	3	11	42	-2
158	4	11	-3	0
157	5	19	-84	14
157	9	22	88	23
158	8	17	146	18
158	3	14	-74	20
157	1	16	-81	14
157	3	24	3	4
157	10	27	11	7
157	6	28	-35	6
158	5	24	-40	4
158	2	15	-32	7
157	8	8	-50	7
159	8	22	-26	7
157	11	27	1	19
158	7	17	19	26
157	7	22	-32	27
158	7	14	16	26
157	3	15	59	18
157	5	18	-34	4
158	2	17	-56	-5
158	3	15	-68	-19
157	4	13	-72	-30
158	5	22	-12	-31
157	5	18	24	-25
157	2	14	46	-12
158	5	17	42	-13
158	4	21	-2	1
157	4	18	-8	8
157	2	19	-13	-2
157	4	20	5	-11
157	5	20	9	-11
157	4	23	36	-2
157	7	15	97	2
158	7	16	58	0
158	9	26	21	6
157	3	17	14	18
158	-3	10	-16	5
158	2	18	-66	-13
158	7	24	-118	-22
157	5	19	-18	-32
158	-1	11	77	-16
158	1	15	19	7
158	5	15	49	14
157	5	14	34	18
157	7	22	-29	23
157	7	19	1	26
158	5	17	21	32
157	8	20	46	24
157	9	17	84	19
158	8	12	63	15
157	8	13	-44	3
158	7	17	-41	-16
158	4	15	6	-30
158	5	19	-63	-26
158	3	23	-69	-16
157	3	22	43	-12
158	2	23	103	-5
158	3	26	24	-2
157	4	22	-6	-6
157	3	18	5	-5
158	4	21	6	4
157	8	23	93	10
158	7	18	127	10
158	5	15	71	26
158	3	12	13	23
158	0	10	2	18
158	0	10	65	15
158	4	9	20	13
157	10	14	-91	12
157	12	22	-146	-13
158	4	17	-43	-28
159	2	13	50	-27
157	5	19	74	-13
157	9	25	63	0
157	14	27	-71	0
158	11	21	3	-3
158	5	21	35	2
157	5	21	52	-4
158	6	27	60	0
157	10	26	-28	11
157	15	17	-6	20
158	13	14	-42	16
157	4	15	-53	3
157	1	17	-75	-3
158	0	15	-61	14
158	-3	19	-28	15
158	-2	17	-1	12
158	7	12	1	20
158	3	12	-57	12
157	1	17	-43	11
158	5	20	0	9
157	0	16	50	8
158	1	23	87	3
158	7	19	127	-5
158	7	17	86	-15
158	7	23	26	-14
157	8	24	23	-22
158	4	19	-33	-27
158	6	14	-31	-13
158	7	15	-3	-9
158	5	17	2	-2
157	5	24	-1	11
158	4	22	-121	22
158	7	18	-149	25
157	4	17	-32	22
157	5	22	7	6
157	4	18	-1	-4
157	3	15	99	-12
158	4	18	106	2
158	2	16	6	7
157	3	21	120	3
157	5	20	130	-1
158	5	13	121	-10
157	7	17	73	-4
157	8	19	-40	-9
158	7	15	-49	-24
158	5	21	-94	-22
158	5	16	-19	-5
158	4	13	64	-11
157	5	19	68	-8
158	5	17	0	-4
157	1	11	-57	-5
157	-1	9	57	-4
157	-1	13	65	-5
157	4	21	-61	-2
158	3	23	-75	3
157	5	26	-102	11
158	9	25	-51	11
157	5	18	4	15
157	4	16	-6	14
158	6	14	-4	19
158	8	19	2	19
157	10	22	49	13
158	8	22	75	13
158	7	19	127	10
158	8	17	105	17
158	5	23	95	21
157	3	21	103	14
157	1	14	-18	0
158	1	12	-110	-11
158	5	10	-97	-9
157	3	19	-32	-6
157	3	24	-33	-9
158	5	19	-39	1
157	5	24	-45	16
158	5	19	-77	11
158	2	17	-78	8
157	2	18	-31	5
157	5	10	107	4
157	4	15	210	-13
158	5	17	118	-24
157	5	18	-57	-9
158	6	24	-64	2
157	8	24	-6	8
158	8	20	33	4
158	5	22	26	13
158	5	22	-6	14
158	4	19	-9	4
158	3	23	-84	-4
157	4	13	-107	-17
157	4	11	71	-18
157	4	13	241	-18
158	-1	8	167	-16
158	1	11	52	3
158	9	15	-30	13
158	10	20	-47	12
157	11	23	-41	17
157	13	19	-102	23
157	8	23	-70	22
157	5	21	-121	6
157	7	23	-169	-10
158	7	25	-93	-17
158	3	19	3	-25
157	-2	11	130	-17
157	1	13	115	-1
157	4	25	104	-10
157	5	18	165	-11
158	4	13	99	-6
158	5	17	49	-6
157	6	21	41	-4
157	4	21	16	-8
158	5	16	-28	-5
158	4	18	-67	-9
158	6	23	-32	-8
158	6	18	-21	0
158	7	13	17	12
157	12	15	56	28
158	9	19	2	28
158	3	21	-28	25
158	-1	19	-22	23
157	-3	17	1	22
158	1	22	1	26
158	0	22	4	18
158	4	18	54	8
157	5	18	65	-11
158	4	17	1	-17
157	4	18	-29	-4
157	1	16	-43	-6
158	-1	12	-65	-6
157	3	19	-70	-1
158	7	21	-31	7
158	7	19	27	5
158	10	21	-30	5
157	7	14	-45	-2
157	4	13	-31	-9
158	5	17	37	-6
158	7	19	133	0
158	11	23	94	8
158	8	25	40	4
157	7	19	7	3
159	6	15	14	3
158	7	16	3	0
157	5	20	33	-1
157	8	16	49	-15
158	6	13	16	-14
158	5	14	17	1
157	7	17	-10	8
158	3	14	-1	6
158	2	14	99	19
158	6	25	162	20
159	4	22	54	10
158	3	16	-171	-18
158	-1	12	-205	-28
157	0	18	-84	-11
157	3	18	-84	1
157	7	22	21	9
158	8	22	77	9
157	6	17	11	7
158	5	21	-17	3
158	6	19	-28	-5
158	3	18	-16	-11
158	2	17	74	0
157	8	22	64	15
158	9	19	-9	11
158	2	14	154	17
158	6	16	135	27
158	10	16	28	13
158	11	25	-42	2
158	12	22	-27	-16
158	4	11	44	-34
158	3	14	1	-39
158	1	18	33	-29
157	-1	21	7	-14
158	0	21	-39	-10
158	2	13	-26	-2
158	9	6	-9	2
158	7	13	-63	12
158	10	17	-75	11
157	6	19	-67	14
157	4	23	-26	23
157	5	22	46	31
157	4	14	49	29
158	2	8	61	29
157	1	8	8	10
158	5	19	-49	-14
157	8	26	-64	-26
158	10	22	-14	-46
158	7	17	20	-38
158	4	17	16	-37
158	4	27	107	-36
158	5	25	156	-4
157	3	19	73	8
158	5	23	31	14
158	4	22	-24	16
157	1	19	-49	16
158	2	16	12	26
157	3	19	24	23
158	8	19	26	14
158	6	22	3	9
158	6	13	-47	8
158	2	17	-73	12
158	3	26	-151	16
157	3	15	-172	24
158	4	13	-39	30
157	4	14	15	27
157	4	13	-17	17
158	5	14	62	7
157	2	14	149	-2
156	3	20	94	-5
158	5	23	192	-5
158	7	17	182	-5
157	4	14	-3	-5
158	4	15	35	9
157	9	21	-28	4
158	8	23	-45	-6
157	6	21	-18	-4
157	8	22	-26	2
157	7	19	17	7
157	4	19	-57	7
158	4	19	-54	11
158	5	18	-45	12
158	4	19	-45	-2
157	5	15	16	-4
158	8	14	41	3
157	14	14	43	-3
158	11	16	6	-15
158	3	17	55	-44
158	1	18	163	-69
157	-3	15	127	-40
158	-7	15	-48	-5
157	1	19	-57	15
158	7	27	5	16
157	4	28	-7	4
157	2	19	5	-16
158	4	13	-85	2
158	9	19	-113	19
158	11	20	14	18
158	5	19	56	26
157	5	19	25	22
157	2	17	23	24
158	3	18	12	11
157	3	18	9	-1
158	5	19	-27	-7
158	7	22	10	-10
157	8	19	77	-9
157	7	15	42	-6
158	4	14	3	-7
158	9	15	5	-8
157	7	18	43	-1
157	4	14	-23	4
157	7	22	-91	16
157	7	22	-43	11
158	4	17	-24	11
158	7	24	49	8
157	8	22	99	7
158	5	19	28	3
157	4	15	-21	-8
158	8	15	-72	-8
157	8	13	-88	-10
158	7	11	-58	-12
158	8	17	-10	-13
157	3	19	9	2
157	3	25	54	8
158	3	20	147	10
157	3	12	107	11
157	4	19	63	6
157	2	21	64	13
157	2	25	-11	16
158	2	22	-27	20
158	5	18	-55	25
158	11	24	-116	25
157	10	19	-43	16
158	7	16	-1	-6
157	1	13	-17	-21
158	1	16	-72	-8
157	5	15	-75	1
158	5	22	-8	0
158	8	28	4	-2
157	10	24	28	-10
158	5	20	71	-13
158	0	11	167	-15
158	1	4	198	-9
157	0	7	111	-4
157	9	22	-44	-1
157	12	24	-83	-4
159	4	14	-12	0
157	10	22	-39	4
158	23	21	-10	7
158	31	22	1	11
157	18	21	33	4
158	12	22	36	-2
157	2	18	-26	-13
158	-7	20	23	-11
157	-13	14	78	10
158	-29	5	90	7
157	-33	9	36	14
157	-9	15	-44	33
158	2	19	-1	20
158	-8	22	12	8
157	-4	22	-65	-7
157	-4	15	-34	-23
158	2	14	17	-35
157	1	14	41	-17
157	11	17	18	-5
158	35	21	-26	-12
158	41	22	-51	2
158	52	24	-74	18
157	43	19	-48	33
158	26	20	-36	29
158	11	22	42	11
157	3	17	172	0
158	0	14	124	-3
157	-21	19	-47	-11
158	-36	21	-15	-19
158	9	22	93	-16
157	24	22	-23	-18
158	-4	21	-129	-21
157	38	15	-32	-26
157	14	7	47	-21
157	-16	12	15	-7
158	-52	9	53	1
158	-115	8	37	2
158	-24	17	-24	8
158	89	22	-44	11
157	66	25	-81	9
157	32	25	-35	10
157	25	28	49	18
158	-26	22	29	19
158	-17	25	1	14
158	3	28	-19	14
158	3	25	-63	9
158	8	21	-34	15
158	2	15	-5	18
158	8	10	-18	8
158	3	17	-19	7
158	5	15	74	11
158	3	17	146	11
158	5	17	168	7
157	5	9	124	6
158	8	14	39	4
158	10	22	75	3
158	8	17	17	-9
158	7	19	-94	-10
158	7	22	-99	-14
158	4	16	-104	-12
157	3	17	-97	3
158	5	18	-92	1
157	5	23	-32	9
158	3	19	78	4
158	1	15	154	14
158	5	22	60	16
157	7	24	-24	9
157	5	23	23	3
158	4	22	-36	2
158	3	19	24	2
158	8	18	101	-11
158	9	18	1	-3
157	11	16	-34	-5
158	9	23	-18	-8
157	13	28	-62	-11
157	10	19	16	-12
157	9	19	72	-16
158	13	15	63	-6
158	11	15	49	11
158	5	23	-11	14
158	0	22	35	12
157	-6	13	69	13
158	-7	13	46	15
157	-1	15	6	12
158	1	11	14	0
158	1	9	-42	-6
157	1	12	-129	-1
158	1	19	-114	-5
157	7	24	-93	-21
157	7	22	-30	-42
157	7	19	80	-45
158	9	15	155	-22
158	8	16	40	-23
157	5	19	2	-11
158	8	18	68	9
158	11	21	45	6
157	7	22	29	10
158	4	17	-15	16
157	3	13	-63	7
157	3	9	-135	11
158	7	18	-63	24
158	15	23	15	19
158	29	21	36	23
157	38	20	77	20
158	24	18	5	14
158	13	19	51	25
159	-3	20	97	23
158	-18	26	56	16
157	-30	26	35	21
157	-44	18	-30	26
158	-32	12	20	11
158	-3	17	48	-2
157	8	23	-70	3
157	9	20	-174	-6
157	17	17	-109	-18
158	3	10	31	-21
157	0	18	-25	-19
157	-6	23	-27	-18
158	-5	22	10	-17
158	17	23	40	-19
159	-2	12	89	-21
157	-44	12	45	-9
159	-44	18	72	0
158	8	15	74	-1
157	19	16	16	2
157	30	16	-20	11
157	47	18	-33	20
157	41	15	21	14
157	45	11	70	6
157	43	15	34	0
157	37	10	27	-4
158	17	7	-17	0
158	-3	13	-35	9
158	-18	18	-7	16
157	-38	21	-39	9
157	-44	24	-81	9
157	-20	21	-45	16
158	0	16	80	8
157	7	19	139	6
157	23	19	69	4
158	30	24	-50	8
157	40	26	-40	-11
158	36	17	21	-24
158	33	15	117	-16
158	28	11	110	-20
157	13	14	-48	-26
157	-1	22	-44	-13
158	-4	23	-58	-4
158	-3	21	-28	-3
157	-5	18	49	3
157	-3	19	43	2
158	-6	15	77	7
158	-4	14	42	20
157	0	20	-8	17
157	-3	22	28	4
158	3	29	99	4
157	1	24	37	9
158	3	15	-100	12
157	1	11	-124	4
157	-1	15	-90	0
157	2	17	-51	6
158	3	22	-70	1
157	4	23	-47	1
157	4	22	-7	-2
157	0	23	-27	1
157	2	19	9	15
157	4	17	22	20
158	5	13	59	9
158	0	11	64	1
157	0	14	53	10
158	1	19	36	3
157	-1	26	-55	0
157	-1	23	-93	-2
158	-13	25	-80	2
157	-14	17	-5	6
157	-5	19	33	-1
158	-1	24	62	-7
157	8	15	93	-25
157	10	11	5	-26
157	20	18	-33	-25
158	30	17	5	-11
158	27	16	91	-16
158	22	19	111	-22
158	14	17	53	-2
158	7	22	20	1
157	10	19	42	6
158	8	20	110	22
157	9	21	52	33
158	5	11	48	32
158	4	5	18	19
158	3	14	-49	12
158	5	16	-11	15
157	6	17	25	7
157	4	15	39	9
157	1	17	-19	6
158	0	15	-60	-11
157	-2	14	-29	-17
157	3	21	21	-12
157	3	19	30	-13
157	4	18	46	-17
157	4	15	-7	-2
158	7	22	-143	4
158	10	26	-66	3
157	4	19	13	7
157	7	23	-14	5
157	7	21	1	4
158	3	22	-24	7
158	5	19	-15	16
157	4	17	-39	9
157	7	24	-58	12
158	9	19	9	12
157	4	18	6	16
157	4	17	-16	34
158	-1	14	71	29
158	-2	19	264	13
158	4	17	294	-4
158	4	12	38	-16
158	4	14	-82	-24
158	4	11	-67	-23
158	5	20	-144	-27
157	7	26	-137	-25
157	10	23	-15	-13
158	18	25	31	-2
157	33	24	2	8
158	24	25	-23	5
158	12	21	-36	-3
157	8	13	6	0
158	-8	10	42	8
159	-15	13	-23	-19
157	-40	9	-63	-42
158	-50	15	-47	-30
158	-3	22	85	-6
158	18	17	100	6
158	5	19	45	12
157	5	18	49	23
158	5	21	8	23
158	-5	21	16	25
158	-36	19	-28	15
157	-56	19	-24	11
159	-11	22	-27	7
157	12	23	-25	1
158	28	17	17	6
157	58	15	61	4
158	66	16	115	3
157	69	16	32	1
157	52	15	-20	2
158	35	17	-18	3
158	20	18	-35	9
157	5	19	19	11
158	-4	22	69	6
158	3	23	103	-1
157	4	23	47	-5
158	4	21	-65	-6
158	3	24	-19	-8
158	-3	21	0	-8
157	0	24	-36	-1
158	-1	23	-36	10
158	-2	18	26	19
157	-5	18	49	27
157	-5	11	-8	25
157	-4	12	-27	20
157	-4	19	-15	18
158	-1	24	48	16
157	-1	20	51	13
158	0	13	89	-1
158	1	17	12	-19
158	5	24	-37	-31
158	1	15	6	-50
157	-2	11	-10	-63
158	2	21	38	-34
157	2	20	-20	3
158	1	15	-2	3
158	-1	19	39	0
157	0	22	13	-4
158	-1	11	-30	-1
157	-1	7	-79	11
157	5	17	-27	13
157	7	26	3	9
158	4	26	44	3
157	3	21	54	11
157	0	21	52	31
157	4	12	60	22
157	7	13	6	19
158	5	15	-32	22
158	5	16	-104	18
158	5	19	-108	8
158	5	16	-50	-7
158	4	15	-11	-4
158	14	20	-14	-14
158	11	23	-68	-22
158	4	19	-65	-28
158	4	22	-116	-22
157	-1	22	-113	-19
159	3	18	-40	-15
158	4	15	85	4
158	5	15	300	13
157	8	15	299	25
158	9	19	173	9
157	9	21	90	-10
158	6	16	-1	-2
158	8	18	-49	15
158	11	13	-29	18
158	10	13	39	15
158	5	18	22	5
157	3	19	-6	-1
158	4	28	14	5
158	2	22	37	5
158	0	15	66	8
157	5	19	3	8
157	11	19	-65	5
158	9	19	-42	1
158	9	17	-45	0
157	5	15	-69	4
157	4	13	-100	9
157	8	19	-158	3
158	4	20	-180	-2
158	3	19	-77	-3
158	4	19	166	-6
158	8	18	227	3
157	9	25	74	9
158	7	25	40	6
157	3	19	37	7
158	0	17	49	6
158	1	19	119	0
158	3	24	128	2
157	4	22	98	3
157	6	18	22	13
157	9	15	-9	19
158	9	17	-36	2
158	8	14	-34	-8
157	7	15	-5	-3
158	6	17	-22	-9
158	8	19	32	-3
157	7	23	20	8
157	7	14	32	0
158	2	10	35	-11
157	3	13	-107	-28
158	1	13	-121	-45
158	0	19	-57	-42
157	1	24	-50	-32
158	3	25	-23	-22
158	5	22	-43	-6
157	5	15	-50	6
159	7	12	-51	26
158	5	17	-48	32
158	5	19	103	30
157	5	20	151	32
157	5	19	43	23
158	3	15	8	21
158	3	21	15	15
157	1	19	-73	5
159	4	19	-105	6
158	10	19	-7	8
158	6	9	-22	-6
157	10	18	-36	-17
158	9	21	-40	-20
158	8	18	-32	-21
158	8	18	49	-12
158	5	15	86	-13
157	8	20	66	-2
157	16	19	-2	7
157	11	23	49	1
158	13	24	78	4
157	9	26	-27	7
157	7	27	-64	17
158	5	18	-73	15
157	-21	12	-27	4
157	-21	6	56	9
158	-3	12	66	15
158	-6	17	95	10
157	-5	14	133	7
157	7	19	123	3
157	8	21	176	-3
157	4	23	68	-14
157	5	25	-122	-13
158	6	21	-49	0
158	3	16	-41	0
157	-34	17	-9	4
158	-50	18	104	4
157	3	15	54	2
157	39	17	-54	3
158	34	15	-62	4
157	45	15	30	6
158	46	16	49	-4
158	40	12	60	-4
158	27	18	10	0
157	7	21	3	0
157	-7	19	32	2
158	-2	17	-24	9
157	-14	10	-62	11
157	-13	15	2	6
157	11	22	11	11
158	14	19	-52	2
157	12	21	-26	-20
158	13	27	-77	-12
158	10	25	-57	4
157	3	22	-2	2
157	0	19	-2	-2
157	4	15	30	0
157	-1	15	26	-2
157	-2	14	-5	-1
158	1	19	-33	2
158	2	21	-41	4
157	0	16	-40	-5
158	1	17	9	-10
157	-2	18	63	2
158	1	14	89	6
157	3	12	94	6
157	5	16	30	15
157	8	18	-87	17
157	8	19	-92	9
158	5	17	13	-1
157	4	23	51	-2
157	2	21	27	-3
157	3	18	-5	5
158	3	15	23	21
158	2	12	88	19
158	1	17	79	14
157	3	22	-12	2
158	3	21	-35	-8
158	1	12	54	9
157	1	19	105	25
158	0	25	100	25
157	-1	19	80	30
158	1	24	-30	19
158	7	23	-73	-13
157	9	21	-88	-43
158	7	20	-107	-61
158	5	14	-33	-63
158	11	14	-50	-45
158	15	19	-35	-38
157	16	17	50	-46
157	15	17	-18	-33
157	16	20	-39	-15
157	10	19	-3	-4
158	5	21	-43	-1
158	1	13	4	15
157	-1	15	-10	22
157	-1	14	12	24
158	-2	14	110	21
157	-1	13	186	23
158	3	11	214	28
157	9	21	48	32
157	10	24	7	41
157	5	19	-14	39
158	8	21	-62	17
158	9	22	-7	8
158	8	23	-38	11
158	14	24	4	6
157	-1	21	-5	12
158	-18	22	-122	-7
158	-19	18	-120	-26
158	-18	17	25	-17
158	-8	21	42	-5
157	8	25	-60	-4
158	14	23	2	3
157	16	14	23	13
158	22	9	4	12
157	27	13	22	12
157	26	15	36	18
158	19	15	18	16
158	16	17	-2	2
158	10	23	5	-8
158	11	28	-9	0
157	8	23	8	3
157	5	16	70	-4
158	5	10	149	-10
158	15	17	74	-9
157	28	24	-3	4
157	16	15	-22	6
157	4	11	-2	6
158	-11	17	11	11
157	-58	24	-84	11
158	-55	24	-45	14
157	-27	16	-15	6
158	-34	9	-62	4
158	12	15	-1	-10
157	31	13	129	-18
158	30	13	186	-4
157	60	17	58	-6
157	42	14	-65	-9
157	24	21	-130	-2
158	10	20	-94	0
157	-8	16	-4	-4
158	-4	19	10	-5
158	-2	22	26	-10
158	0	24	40	-19
158	0	17	81	-10
158	1	18	12	-1
158	3	21	-40	6
158	1	22	-31	1
158	1	17	-57	2
157	1	16	-32	11
158	3	21	16	15
157	1	17	28	20
158	-1	15	25	20
157	0	14	94	17
157	-1	9	107	13
158	-1	15	13	-5
158	-3	11	-27	-18
157	-23	12	-16	-6
158	-39	20	-10	-5
158	-20	18	35	0
157	5	19	65	4
158	16	12	11	-6
158	33	17	-59	-4
158	42	28	-29	-10
158	41	22	25	1
157	39	17	13	22
158	28	15	56	21
158	14	17	100	10
158	22	13	66	-8
158	36	18	-39	-24
157	26	23	-38	-20
157	15	19	32	-11
158	7	22	-2	-25
158	-13	25	-1	-21
158	-27	24	-72	-10
157	-39	15	-128	-4
158	-50	11	-80	-5
158	-39	17	-89	10
157	-7	19	-61	22
158	6	18	41	17
158	14	21	58	6
158	20	22	35	6
158	13	25	69	10
157	15	28	91	5
158	10	21	37	4
157	11	13	12	15
158	11	15	16	16
158	9	24	68	8
158	10	21	102	12
157	15	14	-1	1
158	20	24	-17	-10
158	11	22	-31	-10
158	5	19	-77	-10
157	7	19	-21	-7
158	3	19	-1	2
158	3	19	44	9
158	3	17	78	3
157	3	17	11	10
157	3	15	-31	8
157	2	16	-39	6
158	3	17	-16	10
157	3	19	29	24
157	-2	20	43	27
157	0	21	28	23
158	0	15	51	9
157	6	12	77	-17
157	7	17	5	-21
157	3	19	-53	-10
157	1	15	0	-4
157	0	18	0	-2
158	0	17	-45	-4
157	2	15	3	-4
158	10	25	70	4
157	4	21	85	-9
158	-19	15	15	-13
158	-17	11	-8	-19
158	13	11	-8	-20
157	17	16	-42	-14
157	23	17	-70	-13
158	33	18	-60	-7
157	13	13	-2	-6
158	-26	19	16	5
158	-69	17	62	-2
158	-53	11	35	-3
158	-6	16	-49	9
157	33	19	-60	17
158	39	16	-37	26
157	46	19	-33	18
158	60	23	1	14
158	37	17	78	17
157	32	19	71	20
158	29	15	41	7
157	17	16	38	6
158	8	24	32	9
157	11	23	45	0
157	7	18	147	-4
157	-6	16	164	-4
158	-3	18	-75	2
157	-5	25	-109	3
158	-2	26	-16	8
157	-2	22	-103	12
158	-2	16	-66	-6
158	-5	11	-7	-20
157	-8	18	118	-19
158	-4	21	17	-5
158	-3	17	-173	7
158	-1	22	-11	0
157	0	21	23	4
157	0	13	5	-2
158	-3	14	57	-1
157	-3	22	87	12
158	0	23	51	18
158	0	19	-14	23
158	4	17	-32	20
158	8	15	-43	10
158	5	19	1	8
158	5	18	37	-6
157	8	17	85	-13
158	8	20	60	-13
158	10	21	-22	-22
158	9	21	-55	-5
157	8	21	-59	2
158	7	25	-65	5
158	5	15	-33	-6
157	1	6	81	-20
158	1	15	45	-16
158	3	21	-20	-7
158	3	22	33	0
158	5	25	-5	9
158	4	22	59	16
157	3	19	132	12
158	1	15	87	15
158	3	17	123	15
158	3	17	87	4
157	4	20	10	10
158	10	24	-54	14
158	7	15	-110	3
158	5	8	-75	3
158	4	13	-112	-4
157	10	23	-75	-5
158	9	14	30	-12
157	4	12	75	-6
157	9	17	60	9
157	6	17	17	13
157	8	17	32	16
157	8	15	-100	3
157	6	15	-158	5
158	5	18	-41	-13
159	4	21	-40	-24
157	8	14	-4	-13
158	7	11	213	-21
158	5	15	249	-13
157	8	31	34	-2
157	8	29	-90	7
158	7	24	-50	10
157	5	21	-42	18
157	5	24	-19	33
158	4	24	23	33
158	6	17	-35	37
159	5	21	38	30
157	3	13	212	18
158	5	20	132	14
158	10	28	-103	-15
158	1	5	-240	-60
158	-7	6	-246	-69
157	0	21	-103	-48
158	3	17	59	-38
157	2	19	304	-31
158	3	17	167	-17
157	3	19	81	0
157	6	23	249	25
158	4	17	-17	33
158	3	22	-118	21
157	3	17	-243	18
158	1	14	-106	3
157	4	17	34	-9
158	4	11	-36	-23
158	3	16	196	0
157	13	24	180	1
157	8	17	62	-2
157	9	18	-84	12
157	8	20	-73	7
158	4	17	-59	18
157	4	23	-165	12
157	3	20	-179	23
157	4	22	-125	26
158	7	19	33	18
157	4	21	-44	25
157	4	23	49	23
157	5	23	261	20
157	9	19	330	-8
157	10	11	184	-6
157	11	17	-50	0
158	8	14	69	6
158	5	19	-57	17
157	0	19	29	32
157	-1	18	81	27
158	-2	19	-36	10
158	-1	15	54	-8
157	0	16	-121	-36
158	1	33	-90	-25
157	5	34	-31	-32
157	5	23	5	-32
158	7	24	14	-21
157	5	13	-51	-18
158	8	12	-99	-1
157	12	20	-133	15
158	11	21	-51	19
157	11	15	-6	7
157	9	11	62	2
157	12	18	65	7
158	13	23	90	10
157	8	14	51	-4
157	2	14	-46	-1
158	4	19	22	-4
158	1	5	21	-4
158	-1	13	105	7
158	2	15	137	-6
158	7	18	-26	0
157	10	24	-73	-2
158	3	13	-23	-3
157	4	22	-10	11
158	4	20	-9	6
158	1	17	27	13
157	-2	19	-3	18
158	-12	19	14	16
158	-11	22	-4	8
159	-5	19	8	2
158	1	23	25	6
158	7	14	-32	-2
157	8	12	-51	-8
157	17	16	-61	-6
158	24	19	-29	1
157	31	26	19	9
158	29	21	-58	7
158	23	16	-101	4
158	20	12	14	-8
158	10	15	151	-19
157	4	21	271	-17
158	5	23	147	-23
157	-3	25	86	-15
157	-6	21	41	-3
157	-3	15	-42	-2
157	-8	14	41	10
157	-8	18	-71	21
157	-9	14	-102	16
159	-7	16	-47	17
157	2	17	-38	15
158	4	17	29	18
157	4	18	37	1
157	-1	13	90	-12
157	-4	11	42	-6
158	-3	19	-14	-11
158	5	19	22	-16
157	10	24	-67	-17
158	3	25	-137	-11
158	6	18	-188	-2
158	21	21	-212	10
158	41	24	-37	13
157	36	25	186	9
158	12	21	300	5
158	-7	19	72	-12
158	-59	10	-20	-33
157	-64	17	6	-32
157	-25	21	-45	-9
157	-25	19	83	-5
158	7	20	-5	-4
157	61	8	4	4
158	96	14	29	7
158	87	15	45	4
157	59	9	48	9
157	44	12	-55	19
158	13	14	1	16
157	-2	18	-25	15
158	-13	17	-32	15
158	-46	15	-48	16
158	-40	19	-59	23
157	-4	19	-34	22
158	-14	17	-19	22
158	-17	16	14	24
159	-19	22	55	12
158	-56	17	105	-9
158	-30	16	0	2
157	-10	23	-6	12
158	-25	14	111	-3
157	1	17	186	-8
158	35	20	87	-23
157	37	18	-85	-26
157	41	17	-18	-12
158	42	16	-15	5
157	33	21	-37	19
157	25	20	-25	10
158	-1	21	10	4
158	-13	24	1	6
157	15	28	-4	3
157	26	25	190	16
158	9	27	150	19
158	10	26	-9	8
157	7	15	-9	2
158	3	15	-82	-9
158	1	13	-123	-9
158	3	19	-65	0
158	9	24	-83	-2
157	8	13	-47	-12
157	2	7	20	-30
158	0	9	21	-32
157	1	14	17	-23
157	5	30	4	-14
158	3	20	32	-4
157	2	19	25	5
157	-2	18	-31	16
157	2	13	20	21
158	8	13	66	23
157	9	19	-16	19
158	12	21	-62	3
158	8	14	13	-6
158	1	20	109	-22
157	1	18	77	-18
158	2	23	-4	7
157	0	11	31	12
157	1	11	-27	29
157	5	23	-152	26
158	1	23	-132	32
158	3	21	-43	25
158	1	17	45	23
157	5	24	25	21
158	5	14	89	-9
158	4	11	75	-17
158	7	18	-47	-27
158	4	21	48	-37
157	3	21	39	-45
158	3	16	-49	-31
158	2	18	-93	-13
158	3	17	-117	1
158	3	19	-66	15
157	4	30	11	22
158	7	30	201	13
158	5	22	382	4
157	0	14	289	6
158	1	17	34	0
158	3	24	-28	4
157	7	25	-133	11
158	12	24	-192	-4
158	6	11	-58	-18
158	5	15	-56	-11
158	5	19	-13	-18
157	-28	17	33	-11
158	-53	22	102	-4
158	-20	25	84	3
157	7	25	53	19
158	14	13	-15	26
158	38	14	-138	16
158	44	17	-65	14
158	53	21	13	16
158	41	15	68	-1
158	25	11	26	-5
158	19	17	53	-7
157	1	21	108	5
159	-4	18	78	13
157	4	16	35	11
158	10	19	-48	-8
158	3	7	-9	-19
157	1	9	-39	6
157	3	21	-142	9
158	2	21	-96	21
157	6	23	-10	23
158	8	11	29	6
158	2	12	39	-7
158	-11	21	-63	-5
158	-35	17	-46	4
158	-31	14	-1	1
158	12	20	-102	0
157	35	25	-33	0
158	26	18	-72	8
158	25	26	-106	1
157	33	19	17	1
157	31	17	40	6
158	-15	15	105	-8
157	-47	11	132	-12
157	-29	20	130	-19
158	2	27	149	-19
158	5	26	106	-13
158	17	23	88	-6
158	37	19	56	6
158	23	18	55	4
157	1	19	68	8
158	-28	14	2	14
158	-42	17	-22	8
158	-22	15	-65	-4
158	1	17	-112	-7
158	6	22	-100	-4
158	12	16	-106	3
158	8	14	-28	7
158	-19	7	123	5
157	-47	12	104	5
157	-21	17	32	4
158	19	22	80	11
157	28	21	80	7
158	48	16	22	4
157	55	13	-45	10
158	60	11	-79	14
158	57	21	-24	19
158	30	25	14	10
157	16	24	-51	-8
158	-3	28	-152	-3
157	-13	19	-56	-11
158	-15	12	25	-18
157	-20	15	28	-8
157	-14	22	128	-9
158	9	26	45	-10
158	24	22	0	-14
157	14	19	-11	-13
158	-14	15	-71	-16
158	-32	15	-88	2
157	-5	19	42	11
158	1	15	221	10
158	-16	16	124	13
158	-3	12	14	15
157	35	15	-56	12
158	48	24	-100	4
157	29	17	-64	10
158	24	21	-39	-2
157	16	21	6	-7
158	-17	13	13	-18
158	-34	16	8	-21
157	-5	18	18	-14
157	2	15	15	-4
158	-6	14	14	11
157	-2	16	-2	8
158	-6	16	-24	13
158	4	17	-14	7
157	3	22	32	10
158	8	25	56	14
157	13	23	41	9
158	14	26	-26	11
157	13	22	0	8
157	7	14	77	8
158	5	19	-38	16
158	1	22	-64	25
158	4	22	-23	15
157	-1	21	-135	-4
157	-1	12	2	-31
157	13	12	106	-56
157	23	7	52	-27
157	11	7	176	0
157	5	21	115	-3
158	11	22	104	8
157	14	12	30	9
157	8	11	-42	13
157	-15	12	25	12
157	-38	15	-86	20
158	-37	29	-111	13
158	-10	27	-77	2
157	-5	24	-10	7
158	-5	18	52	1
157	22	19	98	-1
158	54	23	83	-4
157	52	15	9	-4
157	27	16	-6	-2
158	20	16	-20	1
158	0	13	-1	2
157	-7	16	3	7
158	1	17	25	3
157	7	21	53	3
157	-4	16	-18	11
158	-1	14	-60	4
157	-2	17	-79	-1
158	1	26	-140	-4
159	17	25	-21	0
157	14	18	127	2
157	11	17	145	-1
158	3	14	130	-2
157	3	19	120	6
158	3	14	72	5
158	0	14	-100	9
158	1	20	-138	2
158	-1	17	-33	-6
157	5	23	-14	15
157	9	25	5	22
158	-2	15	25	15
157	-22	18	11	7
158	-48	24	-18	-10
158	-36	22	-44	-18
159	23	15	-41	-6
157	49	14	-70	2
158	59	15	-64	-10
157	78	15	-36	-14
158	68	18	-21	-14
158	47	15	27	-11
159	-18	18	107	0
158	-77	15	107	-9
158	-23	17	24	-21
158	19	19	38	-22
158	-15	19	44	1
157	-4	19	-22	10
157	-1	18	-65	4
158	-10	19	-55	15
157	-2	16	-57	9
158	-6	15	-48	4
157	10	19	21	6
158	3	19	49	-2
158	10	21	15	6
158	14	19	47	7
158	5	21	159	6
157	3	24	215	13
158	-3	23	105	2
158	-3	22	-112	2
158	-3	23	-88	9
157	-31	19	47	6
157	-57	17	72	-1
157	-16	21	63	0
157	25	21	49	6
157	47	22	-49	4
158	63	20	-87	4
157	64	16	43	3
157	53	8	14	7
158	25	17	-6	1
158	7	21	-30	-13
158	-15	20	-1	-9
158	-13	24	38	-10
157	-23	22	-11	-2
158	-37	22	-9	11
158	-3	18	-48	13
157	8	22	-36	7
157	3	19	-27	-2
157	8	14	-3	-1
157	5	14	-10	1
157	4	22	-29	17
157	7	19	28	18
157	3	14	57	9
158	1	16	16	6
157	3	13	-42	-4
158	2	16	-60	-6
157	1	15	-9	-7
158	-2	15	69	-1
157	-3	17	16	-1
157	-6	21	-22	2
158	-13	20	-3	7
158	-12	18	32	10
157	1	17	104	7
158	11	12	83	-2
157	20	17	-22	4
157	20	22	-64	7
157	25	18	-59	-4
158	33	17	-95	-12
158	41	15	4	-7
158	41	14	53	-2
157	27	16	-36	-4
158	20	21	-52	-12
157	10	16	-21	-15
158	-1	3	118	4
157	-11	3	116	21
158	-34	13	70	24
158	-38	13	125	28
158	-8	21	-6	26
159	8	23	-171	21
157	11	25	-232	17
158	8	30	-71	-6
158	-3	22	174	-15
157	-10	13	282	-21
158	-15	19	271	-27
157	-5	25	70	-23
157	3	19	-11	-28
158	8	26	-52	-30
157	6	21	-139	-32
158	3	24	-53	-25
157	-12	20	4	-8
157	-37	14	2	6
158	-13	19	32	9
157	18	24	52	8
157	26	21	12	9
158	14	13	9	4
157	-25	19	-11	10
157	9	22	-48	20
157	29	19	-20	23
158	5	17	-26	21
157	40	19	-21	19
157	51	15	19	15
158	54	16	34	16
158	36	18	23	18
158	21	19	29	15
158	28	19	51	6
158	-6	15	46	0
157	-20	9	-13	-2
159	-25	16	-78	-9
157	-6	19	-42	-1
157	20	13	-24	11
158	17	22	-27	11
157	-13	20	-23	-2
157	-45	18	-18	-15
158	-45	17	16	-7
158	0	16	-23	-6
158	9	21	-18	-2
158	3	19	53	9
158	13	11	34	4
157	-1	19	33	-8
157	14	26	19	-10
157	13	19	-69	-15
158	2	21	-39	-7
157	1	21	-8	14
157	-4	19	17	11
157	2	17	80	3
157	3	13	98	-15
158	11	11	53	-11
158	27	24	-32	3
158	28	17	-6	4
157	1	13	17	9
157	21	15	18	-1
158	72	11	-2	-1
157	33	19	-73	2
158	6	23	-121	3
157	25	26	-160	14
158	16	20	-138	20
157	14	21	-34	14
158	-75	18	184	8
157	-94	11	356	4
157	-9	15	212	-7
157	-8	22	115	-6
157	24	28	138	-12
157	23	18	-29	-16
158	-22	17	-48	-4
158	-15	19	-73	1
158	-25	22	-101	0
158	-18	14	41	0
158	-16	11	-15	12
159	-1	22	-30	11
158	24	17	19	-1
157	17	17	5	3
158	21	19	1	-7
157	10	18	5	-4
157	13	21	50	-1
158	15	18	30	1
158	2	20	8	11
157	2	15	4	5
157	19	17	-34	8
158	29	24	-19	4
157	25	19	24	0
157	-24	19	8	6
158	-79	19	-6	7
157	-67	15	-17	12
158	-18	18	-21	15
157	26	24	-6	-5
158	33	22	-4	-8
158	37	18	52	4
157	47	19	22	7
157	51	23	-58	3
158	54	18	-72	-5
157	40	11	-109	-12
158	41	14	-43	3
158	32	13	4	9
157	20	22	-8	2
158	16	15	48	1
158	2	20	12	-4
158	15	24	8	-7
157	20	16	18	-9
158	1	20	13	-7
158	18	17	38	-12
158	30	23	57	-13
157	5	17	104	2
157	-20	17	39	3
158	-50	21	-74	11
157	-49	18	-65	8
157	-18	17	-25	-2
158	-5	9	-16	0
158	-3	17	35	0
158	1	25	81	2
157	0	21	198	-1
158	-2	11	202	-2
157	0	8	-28	5
158	3	15	-165	6
157	3	17	-78	1
157	4	18	-25	5
157	11	22	-39	9
158	10	21	22	8
157	10	21	24	-1
158	-4	19	17	-5
158	-37	13	31	2
158	-54	13	27	6
158	-64	14	12	9
158	-45	14	22	2
158	42	15	17	6
157	134	15	2	7
158	163	22	-4	-6
158	140	20	-21	-13
157	106	19	-3	-9
159	52	18	21	-1
157	-5	15	71	3
158	-128	16	82	11
157	-182	16	27	13
158	-84	17	-46	13
157	-89	17	-113	3
157	-56	24	-85	-8
158	4	30	-34	-2
158	-20	28	40	7
158	37	23	118	7
158	49	17	74	2
157	23	22	17	-11
158	9	21	8	-20
158	38	17	-7	-6
158	60	20	51	4
157	31	13	42	0
157	25	14	-30	-2
158	2	19	-9	-11
157	0	24	-22	0
157	7	22	6	10
158	42	19	-8	6
157	56	21	-18	14
157	42	15	5	10
158	95	15	-8	7
157	135	15	42	0
157	67	11	48	4
158	5	17	-32	13
157	-34	16	-24	3
157	-63	2	42	4
158	-104	3	-16	10
158	-228	6	-34	3
157	-217	13	-20	-5
158	-68	21	12	-1
158	15	16	16	4
158	82	18	-1	7
158	110	28	22	4
157	71	33	18	6
158	14	15	62	6
158	-72	-33	48	-1
158	-30	-30	5	-8
157	4	26	-52	-8
158	-13	47	-2	-10
158	35	27	17	-8
158	18	25	-139	-1
158	13	51	-73	-1
158	7	30	35	-2
157	7	30	32	1
158	20	61	59	2
157	19	57	50	-4
157	24	52	10	0
157	18	38	13	3
158	26	41	38	1
157	27	32	22	12
158	27	15	35	12
158	16	15	28	7
157	5	4	-8	-6
157	5	-2	-17	-11
158	3	2	31	0
157	4	3	59	0
157	-6	4	-14	10
158	23	15	-7	17
158	41	18	12	-1
158	28	14	14	-8
158	34	13	59	-5
157	35	13	40	2
157	15	18	5	11
158	4	14	-11	15
158	3	12	14	7
157	4	10	18	-6
158	-3	1	-20	-19
157	0	-7	-27	-11
157	21	4	-13	7
158	80	13	-9	1
157	111	11	1	-1
158	54	17	19	-1
157	42	17	-20	7
158	28	15	-8	9
157	-27	14	0	4
157	-117	15	-19	-8
158	-219	5	-10	-2
157	-93	7	4	9
158	28	17	52	1
158	-24	8	82	8
157	-38	9	28	17
157	-39	24	-53	14
157	-27	36	-46	-4
157	-7	32	-40	-5
158	3	31	-78	-5
158	17	38	-51	-11
158	15	19	-8	-6
158	24	1	68	-8
158	22	-1	134	-5
158	9	-3	77	-10
157	-49	14	21	-10
158	-86	24	-59	3
157	4	0	-28	8
158	95	-5	32	8
158	80	17	-57	3
157	91	40	-19	3
158	116	86	6	7
157	81	134	18	9
157	21	66	63	11
157	-79	3	98	3
157	-17	41	103	7
158	55	6	-20	17
158	-15	5	-23	14
158	-21	18	54	8
157	-46	1	30	0
158	-11	16	28	2
158	23	14	63	6
157	2	13	61	4
159	-3	4	-18	4
157	-14	16	-94	1
157	-4	17	-68	-4
158	-11	8	-84	-8
158	-5	7	-114	-6
158	2	0	-52	-6
157	15	-11	-11	-5
157	31	-2	1	4
158	41	17	4	9
158	36	15	8	14
157	20	18	20	11
157	10	31	21	-2
158	-2	46	47	-8
158	18	38	64	-14
158	15	38	54	-7
158	3	25	33	-6
157	-3	-6	39	-12
157	-11	-5	32	4
158	5	-1	-25	8
157	4	-1	20	11
158	15	5	78	6
157	10	-1	-4	-7
158	-3	-2	-54	4
158	-14	-10	-10	-6
157	-53	-3	15	-6
157	-38	25	16	-1
157	15	25	32	-4
158	51	36	12	8
158	110	50	6	13
158	103	54	5	9
158	34	65	-8	7
158	28	61	6	9
158	-54	52	3	4
157	-167	-3	12	4
158	-231	-35	38	9
157	-178	-2	66	4
158	18	-4	81	-7
158	63	-4	55	-11
157	70	-13	-20	-7
158	116	11	-111	-4
158	82	68	-66	-7
158	58	77	-33	-10
158	28	57	-52	-3
157	8	40	13	4
158	2	36	49	13
158	27	28	72	6
157	74	19	63	-1
157	83	3	29	4
158	55	2	-6	0
158	23	13	-32	-2
158	-24	23	4	9
158	-97	11	31	13
158	-150	17	13	10
157	-60	54	-16	4
158	34	56	-6	-13
158	27	9	0	-9
158	32	-43	-26	3
158	5	-53	2	2
158	0	-12	25	2
158	-2	38	-17	2
158	-3	3	-32	-2
158	8	-21	18	-12
158	-8	54	22	0
157	8	36	2	12
158	13	31	33	13
157	17	63	38	15
158	12	-8	30	8
157	9	22	-7	0
158	8	16	-33	-5
158	7	-7	-23	-7
157	14	17	-12	-8
158	13	-1	-11	-2
158	26	14	-18	-2
158	39	1	-9	9
158	34	-4	-6	13
158	12	-9	32	1
158	16	20	88	2
157	4	72	111	2
158	-18	54	101	2
158	1	1	13	10
157	75	7	-85	15
157	88	19	-35	-3
158	58	14	12	-4
158	43	27	-2	-4
158	-63	14	4	-4
157	-205	26	2	-1
157	-246	21	50	-4
157	-74	21	30	5
158	9	17	-18	4
157	-17	11	-15	2
159	55	8	-24	-1
158	57	-6	-40	0
157	66	-11	-36	-5
158	77	-21	-20	-1
158	94	3	-18	2
158	89	9	2	-7
158	74	33	5	-2
157	72	77	16	-2
158	28	56	22	-3
157	9	42	23	-1
157	-48	53	33	5
158	-117	57	80	11
157	-165	58	128	9
157	-49	43	56	8
158	44	37	-64	9
158	23	11	-51	4
157	50	5	13	1
157	26	7	-4	0
157	28	-23	6	7
157	4	-37	-20	4
158	-10	15	-15	-13
158	-6	39	2	-1
158	-15	26	12	0
158	-2	19	0	2
157	2	-6	-83	25
158	16	-3	-50	13
158	-7	-22	-14	5
157	-42	-16	1	-6
158	-116	24	34	-10
157	-129	44	5	-5
158	-15	51	5	-8
157	59	51	16	-4
157	116	46	53	-9
157	114	34	74	-4
158	74	80	39	-4
158	100	81	52	-2
158	101	-14	41	-4
158	61	-59	59	-14
158	25	-15	88	-7
157	-5	5	79	-1
158	-17	-7	74	-1
157	1	-2	52	-2
157	13	-3	-23	-4
158	9	6	-100	6
158	-20	11	-41	-2
158	-71	12	-27	-7
158	-23	17	-75	15
157	9	21	-28	14
158	-19	28	-2	7
158	-11	38	-31	7
157	-29	39	-44	12
158	-73	38	-9	14
158	-29	66	-1	9
158	90	77	1	9
157	56	32	11	6
158	8	-33	1	7
158	18	-81	0	-1
157	11	-38	-3	-5
158	19	52	10	-7
157	-22	68	11	0
158	-18	-2	5	2
157	10	3	15	0
158	21	31	13	-2
157	10	16	37	4
159	9	32	75	6
157	29	0	10	10
157	42	-10	-92	17
157	15	-11	-9	4
157	-37	-1	37	6
157	2	6	-6	-4
157	55	6	26	-5
157	-16	25	19	0
157	-95	53	23	-2
158	32	62	15	6
157	70	31	21	-5
158	-48	40	39	-5
157	-99	40	37	-1
158	-68	45	23	-6
157	16	26	-15	-1
157	-9	21	-6	1
158	-1	52	-4	2
157	-3	44	18	-1
158	-5	17	15	-3
157	23	-1	4	-4
158	5	17	0	-1
158	20	11	-15	1
158	14	14	-1	3
157	20	25	6	5
157	19	16	3	15
158	37	10	-11	17
157	33	-5	8	8
158	31	-27	35	-12
157	75	-38	38	-30
157	-13	-9	24	-9
158	-120	-4	-11	-2
157	-93	-5	-70	6
157	-9	21	-48	11
158	4	36	42	8
157	-60	39	47	2
158	22	49	63	-5
157	167	40	40	7
157	143	29	25	0
158	94	36	12	1
157	25	35	-29	6
158	-30	29	-12	-4
158	-47	18	1	-5
158	-34	25	25	-2
158	-1	37	20	1
157	-2	40	16	1
158	25	22	-27	4
157	27	0	-52	2
157	16	4	-15	1
157	13	12	-5	-5
157	17	14	3	-8
157	-3	15	1	-2
158	-21	15	3	5
157	8	14	-1	2
158	8	12	6	1
158	10	13	7	8
157	8	2	12	11
158	4	-11	24	9
158	-6	-1	31	-2
158	-35	13	53	3
157	-15	-1	67	10
158	52	-21	5	7
158	67	3	-116	15
158	24	11	-60	9
157	20	28	21	-7
158	39	105	-11	-10
157	-16	68	54	-4
158	-89	21	41	4
157	-30	34	22	0
157	-4	-16	35	1
158	-64	6	8	-4
158	-41	66	26	-5
158	25	50	21	-7
158	28	48	21	-7
157	-8	74	8	3
156	1	50	5	4
158	-18	11	16	7
158	1	-5	22	7
158	10	13	12	13
158	-1	39	-7	24
157	-8	6	-12	15
158	-63	-28	-14	1
158	-11	-28	-35	6
157	37	3	-60	-12
158	34	8	-7	-14
157	71	-66	20	-1
158	65	-48	68	-9
157	73	10	112	-6
157	85	-14	54	1
158	99	-8	-8	6
158	69	9	22	7
158	-7	-3	35	9
157	-19	2	-24	5
157	-69	21	-53	-3
158	-141	36	-39	-4
158	-156	33	28	-5
157	-141	41	12	-1
158	-5	60	-11	13
157	51	61	-17	18
157	29	65	-16	-2
158	66	59	-8	-2
157	42	44	-16	-10
158	58	40	-9	-7
157	49	32	-10	-5
157	25	25	14	-7
157	37	25	25	3
157	17	11	29	0
157	-3	6	-10	4
158	-21	3	-30	8
158	-15	-10	4	10
158	1	-10	10	2
157	3	5	22	-2
157	-1	14	30	2
157	28	39	48	-6
157	32	50	54	-7
158	9	27	3	-2
158	9	27	-28	-2
157	-18	35	0	3
157	-80	19	6	6
158	-41	18	4	10
157	57	13	17	6
158	23	-3	16	3
157	9	-1	20	-2
158	-7	10	40	-10
157	-18	21	74	-6
158	-16	22	32	-1
157	-25	17	-75	-1
157	18	30	-44	-2
158	4	30	37	1
158	19	24	10	8
158	30	8	6	6
157	30	-7	8	11
158	35	6	1	15
157	15	-7	-3	7
157	18	-13	-12	10
158	7	-14	6	4
157	-20	1	-6	-7
159	-74	61	0	-2
158	-49	50	10	0
157	37	-3	17	4
158	121	19	21	3
157	140	56	14	9
158	26	67	31	6
157	37	35	45	6
158	57	26	41	7
158	-17	27	35	-4
157	-33	20	25	5
158	-56	19	28	13
158	17	-16	17	12
157	15	10	-108	9
158	-64	55	-117	-1
157	-104	31	2	-16
158	-94	-20	12	-7
158	29	-82	13	-5
157	64	-104	6	-3
157	99	-7	0	1
157	103	93	-8	-11
158	24	65	-7	-9
158	-7	63	4	-2
157	-65	34	-2	-3
158	-46	-1	8	2
158	-9	98	8	6
158	-16	71	25	0
158	-8	41	30	0
157	-15	42	15	1
158	23	12	3	8
157	75	28	3	3
158	63	27	20	2
157	28	36	21	5
158	-11	30	24	4
157	-68	37	25	6
157	-117	42	31	-1
158	-63	25	49	-4
157	32	-48	71	-2
157	-5	-58	43	-2
158	-8	-45	-34	-2
157	6	-56	-16	-9
158	-24	0	4	-6
158	-41	-1	-8	5
158	-61	11	8	6
157	8	13	-15	0
157	37	14	-15	-4
157	69	24	-20	2
158	90	16	-7	2
157	75	30	35	-4
158	59	36	26	0
158	44	33	-18	3
157	61	22	-42	10
157	73	32	-26	13
157	61	15	9	9
157	14	12	79	-9
157	-70	-12	61	-18
157	-169	-24	-85	-9
157	-251	25	-108	0
158	-251	34	29	-3
158	-8	42	44	-1
157	115	68	13	6
157	162	80	40	9
157	273	71	39	9
158	202	59	41	1
157	202	52	31	-6
158	106	14	22	-2
158	-51	-72	16	-2
158	-126	-90	26	-2
157	-106	1	24	10
157	-27	27	9	14
157	-67	-15	-12	3
158	-24	14	-23	0
158	9	71	-7	3
157	-5	49	-5	3
158	23	6	-6	5
158	25	15	-11	10
158	43	7	-1	3
157	9	16	-5	4
158	-36	37	-30	2
158	-19	28	-48	0
157	-45	22	12	2
158	-116	-6	94	-6
158	-112	-27	51	-5
157	-19	-21	-32	2
157	12	15	-22	7
158	15	28	39	7
157	24	25	68	15
158	-11	36	74	17
158	11	26	23	18
157	64	31	-24	7
158	89	65	-10	-10
157	5	82	-47	-4
158	3	65	-24	2
158	2	43	24	-3
157	-81	-8	2	-8
158	-102	-40	0	-18
157	-48	-45	-7	-27
157	94	17	17	-21
157	72	80	19	-7
157	60	26	10	0
158	67	16	8	7
158	28	45	1	11
157	58	34	-1	14
158	37	29	-25	15
158	27	34	8	4
157	-4	15	45	-6
159	-40	-29	17	-1
158	-74	-26	4	-8
158	-45	5	8	-7
158	-24	38	-6	0
158	-60	67	-7	0
158	-56	22	-8	5
158	13	-11	0	2
157	106	53	7	7
158	94	30	13	6
158	116	11	19	7
157	120	45	16	7
158	92	9	27	4
157	96	17	48	-2
158	22	0	58	0
157	-29	-10	21	6
158	-49	-22	13	-1
157	-39	-20	15	-2
157	-4	25	-72	9
158	3	23	-79	11
157	-11	22	22	9
158	-21	18	12	11
159	18	14	2	2
158	37	17	-13	-12
158	33	27	-27	-14
157	35	41	10	-6
158	-5	82	8	8
158	-92	64	21	10
158	-133	3	31	-2
157	-71	-28	41	5
157	-47	-35	9	9
157	-24	-22	-24	-3
158	1	-12	7	-2
157	-67	7	14	3
158	-65	9	10	6
157	2	34	10	0
157	-10	24	12	3
158	-56	-17	11	4
158	-16	-26	2	-2
157	5	-28	6	6
157	32	-24	26	6
157	57	10	62	3
158	58	48	62	5
158	84	73	-12	4
159	118	124	-39	-2
158	140	65	6	-14
158	68	25	-11	-9
158	22	47	-22	-1
157	-13	21	-26	3
157	-73	39	-4	1
158	-146	40	28	6
158	-105	36	43	17
158	67	5	54	8
157	80	-15	8	-9
158	74	9	-30	-21
158	73	8	-38	-8
158	46	3	8	4
157	16	-2	-3	7
158	-56	2	-2	7
157	-71	0	10	2
158	-28	14	-19	2
158	-5	19	2	-1
158	-62	23	-6	0
158	-70	26	-7	2
157	17	32	4	-4
157	45	33	29	-4
157	59	6	20	-3
157	92	20	21	1
158	63	52	20	6
157	18	57	4	8
157	55	31	14	9
158	85	5	19	11
157	12	-32	38	12
158	-71	-48	32	-2
157	-70	-43	25	-19
158	-54	1	24	-20
158	-110	40	32	-9
157	-62	45	31	6
158	35	59	-4	10
157	62	71	-3	5
157	46	50	-18	6
157	40	8	-9	2
158	68	15	32	-2
158	93	6	85	-7
157	59	-2	82	-14
157	16	5	-36	-8
157	-8	11	-120	2
157	-62	21	-66	8
158	-163	18	5	12
158	-172	24	-12	14
157	0	14	19	14
158	16	-13	29	20
157	5	-4	17	18
157	84	22	41	16
157	113	30	36	10
158	111	38	14	-4
158	43	69	-52	0
158	22	102	-24	0
157	-19	29	33	-5
158	-45	-25	12	4
157	-7	39	14	2
158	17	41	8	3
158	7	11	0	-2
158	-2	-2	-4	-6
157	0	-20	-1	-8
158	-8	-14	3	-6
157	-4	17	6	-1
158	-8	25	4	-7
158	-13	12	-28	0
157	-10	30	-52	2
157	10	27	9	2
158	14	10	102	4
158	-3	8	30	14
157	-2	16	-32	18
158	26	10	23	-6
158	-27	-13	38	-21
158	-130	15	19	-16
158	-79	82	0	-9
158	-15	66	-9	-7
158	-53	-34	-11	-5
157	-25	-15	-67	1
158	103	6	-59	2
158	195	4	25	2
158	132	20	-1	9
158	69	1	8	10
157	7	12	7	10
158	-24	5	-11	4
157	0	21	7	-5
157	-20	33	18	-6
158	-73	23	54	4
157	-112	15	46	4
158	-50	28	46	-5
158	-8	35	41	3
157	48	33	18	2
157	179	29	13	12
158	305	15	-6	12
158	283	25	12	-9
158	185	12	45	-7
157	120	22	45	-2
158	-119	29	21	2
158	-289	10	8	1
157	-335	24	4	4
157	-170	25	2	10
157	-71	27	33	9
157	-93	26	75	11
157	-28	34	56	1
157	-41	33	-63	3
157	16	17	-102	0
158	10	8	-23	-3
157	-13	-16	-3	2
157	-33	-19	30	-1
157	-24	-17	12	7
158	27	-41	-39	7
157	15	-36	-22	0
158	44	79	-16	3
157	89	95	5	7
159	154	54	5	2
158	139	106	-2	-2
158	107	101	-14	0
158	49	-32	6	-2
158	-78	-104	31	-4
157	-141	17	10	-3
158	-94	53	9	-8
158	-22	9	2	-4
158	-11	14	-4	-4
159	15	9	12	4
157	17	9	18	4
157	41	1	31	4
158	63	-11	42	8
157	48	0	28	1
157	23	19	3	-1
157	-63	15	19	3
158	-113	17	79	4
158	-29	15	58	0
158	27	18	-71	8
157	50	41	-95	9
157	97	35	-6	6
158	47	32	6	2
157	9	14	21	-7
157	20	-29	18	-6
158	24	17	-26	-14
158	64	37	-3	-5
158	156	-6	25	6
157	157	6	40	7
158	88	-4	30	9
158	61	5	16	-5
157	-17	17	-5	-13
157	-139	22	-11	-20
157	-175	31	6	-10
158	-67	66	3	-4
158	-3	118	-5	2
159	15	63	-35	9
157	42	25	-12	10
157	-16	42	9	3
157	-2	16	8	-5
157	-28	-2	16	-2
158	-103	5	16	6
158	-79	4	26	13
158	-8	-3	21	11
158	11	9	32	12
158	-27	14	23	4
158	4	30	1	-8
158	-12	36	8	-5
157	0	24	-1	1
158	-7	17	5	4
158	-53	-7	17	2
157	-2	31	12	2
157	96	45	12	6
158	125	24	10	10
158	80	-6	4	10
157	67	-32	2	9
157	33	-14	16	6
158	-51	-11	32	4
157	-128	2	0	9
157	-71	-2	-30	3
157	-45	10	-2	-1
158	-43	-6	2	2
158	12	-29	2	8
157	-15	5	55	4
158	17	11	52	-4
157	23	29	-26	-4
159	19	67	-24	2
157	27	111	-11	10
157	-32	77	-45	9
158	-33	18	12	4
157	21	-18	26	0
157	45	-66	18	-5
157	67	-58	7	-12
158	111	48	-54	-9
158	92	108	-6	-5
158	85	41	10	-2
158	61	48	6	5
157	17	46	22	4
158	0	36	19	7
157	1	19	12	-3
158	14	12	6	-3
157	4	36	56	6
157	35	8	71	0
157	65	22	61	2
157	-19	8	53	-3
158	-123	3	49	-8
157	-62	4	74	-11
157	-56	3	24	-11
157	-113	4	-73	3
157	-71	1	-55	6
159	71	4	-15	-5
157	137	5	-17	-10
158	45	21	28	-11
158	30	24	10	2
157	-39	42	-56	2
158	-25	33	-48	-5
157	32	29	-2	0
157	28	54	-18	7
157	32	87	1	2
158	24	73	18	5
158	46	-4	-8	13
158	38	6	7	3
159	3	57	-2	-1
158	26	-16	8	3
157	22	-51	2	3
158	-134	-55	-9	4
157	-143	-34	-1	8
158	-26	21	1	6
158	-42	9	10	6
157	-95	28	16	9
158	-12	30	14	10
158	41	17	0	11
158	16	1	-13	8
158	78	0	-13	1
158	72	2	28	-6
158	10	11	52	-2
157	-9	22	81	10
158	-54	19	111	4
157	-151	23	56	-12
158	-177	12	-59	-1
159	-9	39	-60	4
157	128	31	13	-8
158	121	23	5	-1
158	138	31	25	10
158	130	15	-2	13
158	107	26	-55	7
158	59	38	-51	0
158	11	55	-47	1
157	-3	43	-1	0
158	-7	15	60	5
157	4	-2	126	0
158	-10	-16	33	-6
158	1	-7	-22	3
158	-5	28	15	5
158	-6	36	-14	2
158	3	40	6	0
158	-1	65	0	2
158	8	60	1	-1
157	5	48	-3	-9
158	8	35	16	-16
158	3	17	43	-5
158	-11	0	21	0
158	-74	-22	28	3
157	-136	-3	23	8
157	-69	14	12	7
157	-16	13	-2	12
157	1	15	4	9
158	75	3	-11	2
157	117	8	-1	-17
158	144	-1	34	-14
158	106	-35	47	-11
158	49	-23	-2	-2
157	-17	16	-82	3
158	-46	22	-36	-1
158	19	-7	6	7
158	44	14	-15	2
158	59	28	8	3
158	43	8	8	0
157	3	-5	10	-4
158	-67	-25	-2	0
158	-96	52	-4	8
158	-48	120	14	10
158	-28	68	22	10
157	11	51	25	19
158	11	59	24	15
157	-59	31	10	9
157	-56	32	-12	0
158	1	32	23	-5
158	-9	27	5	-1
157	-45	29	-22	0
158	-22	17	29	-4
158	-5	15	55	-4
157	7	8	46	-5
158	16	-17	-41	0
158	23	-35	-60	2
158	25	14	0	-3
158	-11	46	-11	-2
157	-72	37	-23	1
158	-94	69	3	-1
157	-5	79	16	4
158	40	91	41	18
157	53	-6	102	13
158	84	-170	122	13
158	96	-77	43	19
158	183	-1	-70	8
157	161	-49	-50	-13
158	61	17	-22	-13
157	5	10	-25	-1
158	-45	24	47	-5
158	-143	32	15	-6
158	-261	8	-22	-14
158	-110	29	2	-14
158	32	54	12	-19
157	43	68	10	-15
157	135	26	12	2
157	169	8	24	4
158	175	4	-1	6
157	66	41	0	4
158	8	30	-4	1
158	-35	11	4	4
158	-109	25	6	11
157	-122	17	-8	10
158	-135	32	-19	12
157	-49	17	-18	8
157	-17	15	18	-4
158	9	16	14	-5
158	70	14	2	-5
158	105	15	-12	3
158	127	9	-6	4
158	95	16	16	2
158	4	27	17	-6
158	-68	25	29	-3
158	-32	15	61	14
158	-19	33	79	6
158	-37	57	-7	3
158	-17	82	-79	12
157	-12	108	-14	7
157	16	91	23	2
157	75	2	5	7
158	72	-64	15	3
157	-9	-55	1	6
157	-13	-72	17	4
158	7	-71	21	-1
158	-56	-68	10	2
158	-97	-13	27	2
157	-72	104	31	-3
158	57	67	-11	-6
158	42	42	-60	-2
157	-26	68	-13	2
157	-41	40	28	7
157	-57	36	0	1
158	-3	29	-2	-4
158	-6	19	14	-7
157	23	-3	17	-10
157	38	-12	29	-3
158	52	1	32	-1
158	82	13	13	-2
157	84	22	-24	0
158	61	17	12	-1
158	16	36	47	0
158	1	54	27	-1
158	-53	15	26	-1
157	-89	32	-8	-1
158	-64	70	-10	8
159	-3	35	-10	9
157	-18	44	-4	8
159	-15	46	8	10
157	1	25	-29	11
157	73	-49	-31	5
157	166	-88	30	-12
158	89	-8	118	-5
157	71	-7	53	8
158	31	-19	-46	-6
158	-11	-49	28	-11
157	-41	-55	19	2
158	-43	65	-74	7
157	3	69	-54	-1
158	-13	68	12	3
158	3	58	53	6
158	-42	10	32	-1
157	-67	7	17	2
157	-57	-24	35	4
158	-55	21	36	6
158	-10	13	13	7
158	40	24	1	1
157	87	30	13	3
158	127	34	-1	4
158	145	50	-24	4
157	82	36	-35	-4
158	10	46	-16	-2
157	-45	30	-19	-1
157	-112	33	-17	-12
157	-154	18	-4	-3
158	-69	14	-13	-6
158	94	13	18	-6
157	21	19	2	2
158	-59	24	-17	1
157	-40	29	2	0
157	-87	46	30	-3
158	-83	12	69	9
157	-17	-2	21	2
157	53	9	-70	8
157	44	-2	-44	7
158	55	9	37	0
158	53	13	32	11
157	102	0	53	12
157	117	14	62	13
158	82	9	16	11
157	77	4	6	11
158	2	-4	32	3
157	-69	-11	28	1
158	-155	-11	10	2
157	-115	46	34	-1
157	-50	111	34	-6
158	-58	66	17	-11
157	-81	47	-16	-1
157	-134	64	-12	6
158	-46	43	2	9
157	55	33	-20	3
158	110	36	-15	-9
158	206	31	-19	-19
158	263	37	-6	-6
157	203	29	-9	2
157	80	-19	-13	0
158	3	-88	6	11
158	-70	-99	24	14
157	-159	-50	49	3
157	-83	24	77	-4
157	42	115	43	-8
159	41	99	-70	-4
158	64	77	-70	0
158	14	106	17	-2
158	-47	-58	17	0
157	-95	-135	20	0
159	-77	0	-6	7
158	42	2	-10	0
157	35	26	28	3
158	90	44	35	7
158	45	29	49	3
157	-18	13	46	-1
157	5	-55	69	-6
158	40	-6	8	1
158	61	19	-108	4
158	5	-17	-79	2
158	-11	0	1	2
158	-51	-6	-14	10
157	-74	11	-5	5
157	-148	22	17	0
157	-136	41	14	5
157	-38	68	54	6
157	-19	59	58	9
157	42	42	27	12
158	53	29	-19	17
158	22	49	-13	6
157	23	31	16	-10
158	27	7	-4	-8
157	10	9	-33	-1
157	-44	35	-49	-22
158	-81	26	-7	-11
158	-15	-8	52	8
158	36	-24	41	2
157	67	-5	-19	8
158	115	61	-2	2
157	132	66	71	4
158	136	46	53	2
157	81	33	24	-2
157	11	23	23	-6
158	-45	17	-8	-8
157	-65	18	-17	5
158	-34	12	-18	8
158	-33	2	15	4
158	-9	-1	7	4
157	16	5	-6	7
157	9	0	-4	4
157	3	-20	-10	11
157	-6	-30	23	10
157	5	-31	25	-7
157	73	73	-2	-8
157	93	126	4	4
157	53	43	37	6
157	47	65	28	3
157	1	74	-5	3
157	-129	40	-24	2
158	-233	49	-36	-3
158	-108	55	-7	-5
157	24	5	38	3
158	-7	-50	37	3
157	42	28	-4	3
157	68	80	-18	10
157	96	21	-9	2
157	86	-19	-11	-7
157	29	-48	-8	-6
158	-11	-79	-2	-4
158	-65	-28	-5	-4
158	-5	47	-16	4
158	-13	0	-1	2
158	7	-24	49	-1
157	78	22	69	0
157	-3	28	27	6
158	-5	48	36	4
157	77	26	55	4
158	89	2	15	6
158	-5	7	31	2
158	-29	-6	59	7
158	-97	-2	68	3
158	-235	7	-7	4
157	-172	22	-130	12
158	3	37	-90	0
157	77	11	-9	-12
158	103	13	-1	-9
157	150	91	17	-8
158	110	76	38	-5
157	74	48	41	-6
158	56	-63	-6	-5
158	9	-103	-32	3
157	-24	54	10	6
158	-14	36	15	16
157	-20	8	18	18
157	-34	7	15	18
157	-14	50	-8	2
157	-12	73	-17	-5
158	-13	0	-10	2
158	-19	7	7	-5
158	-24	-15	10	-2
158	-12	-40	10	-13
157	4	10	17	-12
158	12	38	24	-1
158	62	42	23	-1
157	106	67	27	-5
159	74	66	53	-5
158	31	76	21	-1
158	-91	93	-60	11
158	-147	40	-32	11
157	-114	-34	32	9
158	-60	-27	16	4
157	26	-3	-9	-9
157	27	4	-39	-9
158	92	3	-18	2
157	72	0	23	1
157	44	20	27	-13
158	59	8	48	-10
158	12	5	43	-2
158	32	-24	30	-4
158	69	29	-16	7
157	87	104	-31	9
157	33	29	13	8
157	33	5	2	11
159	-10	18	-3	8
157	-103	7	4	8
158	-97	52	-5	6
158	-86	81	12	1
158	-90	16	10	2
157	-59	-13	12	5
157	10	-17	15	8
157	-46	-31	14	6
157	-41	-10	15	5
157	-12	-3	-2	4
157	-7	19	3	-2
157	59	16	-1	-3
157	71	39	-9	-8
158	85	66	26	-1
157	34	45	31	5
158	-37	21	40	0
158	-9	24	23	3
157	69	23	-18	1
158	65	9	-9	4
158	55	18	-5	3
158	81	23	45	0
157	77	30	55	0
158	36	32	21	2
158	-22	30	53	3
157	-32	31	34	4
157	7	42	-10	14
158	68	51	34	10
158	36	33	33	7
157	3	10	-95	15
158	7	14	-60	5
158	-58	19	21	-13
157	-134	-39	-34	-19
158	-140	-158	-25	-6
158	-57	-90	-44	-6
158	-93	49	-33	-9
157	-60	9	6	-5
158	33	27	9	0
158	45	44	1	7
157	127	34	-32	-1
158	124	50	-7	1
159	87	33	11	9
158	53	31	17	-6
158	21	7	16	-7
157	-56	3	22	6
158	-109	27	28	5
157	-50	35	35	10
158	-5	24	39	11
158	34	24	17	7
158	54	22	39	2
157	67	20	35	2
158	96	39	21	-1
157	139	28	9	-4
158	100	33	-7	3
158	41	58	1	-4
158	-12	45	4	2
158	-90	-34	43	6
157	-110	-55	82	0
157	-39	-28	68	1
158	22	-49	-25	-2
158	-19	-73	-77	-2
158	-96	-50	-37	-3
158	-170	89	-31	1
157	-97	91	-3	-5
158	7	15	4	-1
158	28	87	-8	-1
158	38	143	8	-4
157	131	92	12	0
158	137	6	31	-3
158	52	35	21	0
158	-8	2	2	4
158	-62	-10	0	7
157	-28	5	15	16
157	-23	5	10	12
158	8	29	2	4
157	10	26	13	2
157	-13	47	13	3
158	0	55	17	-5
157	-8	57	19	-2
157	-18	25	10	8
158	19	12	4	6
157	83	-20	18	7
157	-4	-42	3	12
158	-44	-39	-17	6
158	-7	-18	10	4
158	-47	-1	45	0
157	-59	-5	40	-4
158	-16	44	-22	-4
158	140	68	-34	0
157	149	66	9	3
158	47	65	-28	9
157	1	87	-37	6
157	-31	75	9	2
158	-11	60	-5	2
158	-61	76	-9	-7
158	-65	55	0	-12
158	61	4	39	-15
157	92	-120	97	-5
158	31	-146	69	-1
158	16	9	-40	-5
158	23	49	-88	10
158	43	-7	-20	13
158	60	-15	-17	7
157	92	-54	2	0
158	2	-35	43	-7
158	-82	-14	12	-5
158	-30	5	14	-9
158	-38	53	28	-14
157	-53	22	51	-3
158	-52	25	37	10
157	-54	39	1	4
158	-94	29	19	8
157	-148	10	15	4
159	-63	-10	12	3
157	33	-6	22	15
159	57	15	52	21
158	109	33	83	11
157	132	44	47	8
157	113	36	-66	24
157	48	16	-140	4
158	12	21	-32	-24
157	-14	3	34	-15
158	-35	-5	-12	-13
157	23	-35	-12	-7
157	98	0	1	-6
158	98	118	12	-1
158	53	146	10	2
157	19	134	20	1
158	-25	73	14	1
157	-111	41	5	4
157	-165	22	17	-2
158	-66	2	15	-1
157	2	21	15	8
158	-28	11	14	-1
158	-35	3	12	-1
158	-112	-15	33	1
157	-88	-1	64	0
157	4	-2	15	-1
158	21	-24	-62	2
157	68	1	-18	5
158	113	3	20	9
158	154	7	-10	3
158	151	33	12	1
157	112	25	8	0
158	58	33	-1	-1
158	16	30	-15	4
158	23	22	-25	5
158	-48	26	-3	7
158	-77	25	9	7
157	-23	28	18	7
157	-75	18	13	2
158	-105	8	18	7
157	-66	-6	10	4
158	40	-7	5	1
158	72	-3	25	0
158	51	13	15	-3
157	40	45	-10	4
158	11	56	-4	-8
158	67	41	-2	-5
158	-7	33	-7	-2
157	-11	23	10	0
158	7	-20	49	4
157	-117	-89	91	-4
157	-156	-54	24	0
158	-39	54	-121	8
159	28	56	-102	12
157	22	47	25	13
158	80	11	16	1
157	84	-97	25	-12
158	171	-42	77	-13
158	194	36	94	-9
158	69	28	71	1
157	-42	75	25	-2
157	-81	47	17	6
157	-115	35	34	7
158	-186	22	40	7
157	-121	14	-17	7
158	17	13	-44	1
158	15	-22	-38	-1
158	-42	-16	-51	-7
158	-31	0	-59	-2
158	34	51	-27	-2
157	83	19	-9	0
157	86	-1	-19	3
158	115	4	16	3
158	48	10	104	-1
157	-44	91	74	0
158	-64	73	21	2
157	-22	32	31	4
157	4	104	11	4
157	9	100	21	2
158	24	35	6	3
158	16	7	-12	1
157	47	36	-27	9
157	27	82	-9	12
157	27	28	15	5
158	31	-16	0	9
158	27	3	23	-1
157	3	-2	42	-18
158	-75	1	45	-9
158	-62	3	-36	0
157	2	13	-81	6
157	62	7	-7	0
157	10	-6	14	2
157	-63	5	8	4
157	-28	0	10	2
158	38	1	8	-2
157	67	18	35	-6
157	82	29	20	6
158	102	22	-8	9
157	60	26	-8	4
158	-33	33	-3	-18
158	-172	-6	-11	-19
157	-163	-53	-23	2
157	-41	-47	-10	6
158	0	-46	6	11
157	67	-8	13	7
159	63	19	13	9
158	32	31	1	9
158	40	81	-11	7
157	37	109	5	4
157	12	116	39	0
158	-20	7	49	-6
158	5	-92	25	-16
157	13	14	10	-7
157	6	73	19	-3
158	-31	-27	13	2
157	14	-92	12	4
157	65	-55	1	4
157	20	17	-6	9
157	20	4	-8	7
158	-12	25	-2	8
157	-18	34	51	9
158	-4	52	86	-5
158	-18	85	5	-2
157	-26	55	-77	7
157	-43	41	6	-1
158	-4	38	39	6
158	25	60	3	10
158	40	18	31	5
157	42	22	37	-12
157	-1	36	27	-21
158	-16	16	-78	-4
157	32	5	-84	-7
158	52	-19	42	-6
157	7	58	7	8
158	-12	132	-27	10
158	-50	82	-8	3
158	-74	14	13	6
158	55	14	21	12
157	92	16	-3	7
157	32	-14	8	0
157	47	-39	10	-8
158	43	-24	12	-2
158	16	-22	3	10
157	-40	-17	23	11
157	69	-3	19	16
157	32	-4	13	13
157	-81	6	22	4
157	-17	4	-11	-2
158	-27	34	13	-8
157	-29	41	45	0
158	-49	39	26	-6
158	-62	68	-45	0
157	-12	74	-92	5
158	40	28	-7	-9
157	-36	-19	39	-11
157	-65	-14	17	-15
158	7	-34	37	-14
157	89	-20	46	3
158	64	10	30	9
157	-9	19	12	3
158	-25	19	7	4
157	-37	14	16	12
158	14	19	55	8
158	21	8	57	7
157	47	3	23	10
157	46	-6	1	6
158	3	-2	-15	4
158	-44	-1	3	5
157	-37	19	-3	2
157	-14	52	8	7
157	-29	82	22	6
157	-7	93	22	-1
158	28	33	22	-5
157	93	60	-5	4
158	81	126	-34	-6
158	79	61	-46	-6
158	80	39	-18	2
158	67	-46	4	5
157	49	-168	10	10
157	14	-90	15	7
157	81	27	26	4
157	47	39	67	-4
158	-11	37	119	-15
158	-70	11	99	-21
157	-141	-10	-60	-3
158	-58	28	-152	2
157	-37	33	-32	-10
158	-75	26	32	-6
158	-54	22	-8	9
158	-15	22	-9	9
157	-23	37	-17	7
158	-15	41	14	2
158	-5	13	24	-10
158	-12	28	29	-5
158	10	53	-7	0
158	-7	86	-60	7
157	18	119	-54	10
158	24	38	-21	11
157	33	-2	20	4
157	51	-22	1	9
158	41	-36	-12	10
158	54	-23	-13	4
158	48	-10	35	7
157	-32	12	43	6
158	-79	15	-27	17
158	-36	40	-5	13
157	-72	15	69	0
158	-73	15	85	-4
157	21	23	-23	4
157	140	22	-58	4
158	143	9	19	-8
157	107	-23	8	-17
158	61	-19	8	-18
157	-28	2	23	0
157	-43	-16	15	9
158	-25	-49	20	6
158	-3	-24	13	-1
157	-16	12	32	-3
158	4	93	39	-4
158	22	161	37	-7
157	52	136	37	-4
158	41	84	22	-4
157	-10	39	13	3
158	-11	-2	24	-4
158	-11	-6	29	-2
157	5	-14	37	10
157	-12	-21	-6	17
157	-69	-10	-10	11
158	-114	-13	24	-2
157	-30	1	-22	-10
157	24	3	-5	-4
158	42	6	-5	4
158	149	10	-15	-1
157	213	19	-8	-1
158	172	18	-16	-2
157	55	37	3	-7
157	-11	50	6	-4
158	-105	13	34	9
158	-132	-18	57	6
158	-40	-19	75	11
157	23	75	18	20
157	61	17	-92	17
157	42	-143	-91	-7
158	-107	-96	-25	-12
158	-139	-17	-6	-2
158	-50	75	10	-7
158	-119	111	23	-5
158	-194	104	24	-1
157	-115	97	0	2
158	-6	60	-27	4
158	3	56	-5	4
157	28	48	16	6
157	80	43	39	7
157	108	32	58	0
158	128	28	41	0
158	99	26	-22	11
158	77	28	-82	15
159	15	45	-42	14
158	-8	34	18	11
158	2	-24	14	10
158	-5	-53	22	4
158	-9	-27	16	-9
158	-26	-19	13	-6
158	32	6	15	-2
157	69	1	-7	1
158	73	-10	1	6
157	105	-15	9	-3
157	30	-21	22	-6
157	-23	-10	32	-10
157	52	-6	35	-10
157	20	39	30	-10
158	-53	77	37	-7
158	-31	52	70	-8
158	-22	26	35	-2
157	-5	40	-57	5
158	15	25	-39	3
158	88	24	14	11
158	149	43	-7	11
157	110	26	12	1
157	36	34	5	-2
158	-57	42	-3	2
158	-216	22	-4	4
158	-275	23	-14	9
158	-126	13	5	4
158	-16	-5	-8	2
157	-50	16	-5	9
158	-117	31	8	2
158	-78	21	24	-1
158	32	18	32	4
157	50	23	38	6
157	88	27	31	0
157	140	57	26	-8
158	143	79	27	-23
158	133	46	35	-20
158	93	10	28	-3
157	23	-81	-7	-6
157	-65	-113	-25	1
158	-67	-54	-42	11
158	-14	-42	-7	14
157	23	27	10	15
158	36	-6	-5	11
158	19	-20	-8	5
158	14	15	-6	7
157	-6	-1	10	-3
159	-36	35	53	-12
158	-70	64	128	-8
157	-61	93	78	3
157	-34	58	-105	12
158	9	60	-145	3
157	113	29	-18	7
157	117	2	1	9
157	82	73	-2	-4
157	73	42	-2	-3
158	-40	-22	-46	17
157	-191	5	-19	16
157	-205	26	-14	0
158	-44	4	-49	-7
158	-1	-2	-46	-10
158	29	39	41	-15
158	108	82	90	-5
157	124	67	94	-2
157	126	45	43	-7
157	60	8	33	0
158	32	-16	122	10
157	-4	11	110	11
157	19	41	45	-1
158	51	22	0	7
157	49	7	7	7
158	77	41	0	3
157	58	39	12	14
158	43	19	48	3
157	-40	-11	-6	0
157	-192	-9	-88	11
158	-170	18	-57	15
157	-72	7	14	12
158	-81	-2	0	6
158	-102	9	3	2
158	-69	30	-17	1
158	37	3	-3	0
157	93	9	3	0
158	120	23	-4	-4
157	117	3	5	-5
157	132	13	-17	-11
158	113	1	5	-9
158	8	15	-20	2
158	-8	47	-28	5
157	-73	69	-10	0
157	-191	47	18	-1
157	-202	-15	18	2
158	-83	-40	-6	-1
158	28	0	6	-2
157	-33	67	-12	1
157	-59	68	8	0
158	27	56	15	8
157	88	47	21	6
157	68	32	39	3
158	96	-85	22	3
158	155	-136	4	2
157	196	-14	23	-5
158	159	19	36	-5
158	73	-11	14	-4
158	24	-53	20	-3
157	-37	-6	69	1
157	-85	54	77	-5
157	-85	23	-40	3
158	-11	-1	-73	2
158	-64	-7	-38	0
157	-55	44	-75	8
157	-16	171	-10	6
158	-57	121	30	7
157	-21	29	10	-9
158	-7	67	27	-16
158	27	15	21	-7
158	15	4	23	-12
157	27	40	-11	-9
158	34	46	-20	2
158	35	28	-1	13
158	16	28	-17	13
157	8	32	-8	6
157	3	7	2	6
158	-62	8	33	10
158	-42	1	67	13
158	-11	1	58	10
157	-42	-5	5	13
157	-42	8	-45	17
158	-16	9	10	11
157	-10	6	34	3
157	74	13	27	-2
157	124	14	27	-2
157	152	29	-4	-14
157	111	27	40	-12
158	48	15	77	-1
158	-8	-5	25	-3
157	-126	1	-66	14
158	-146	17	-22	8
158	-83	24	18	1
157	25	10	0	0
157	-4	0	25	-5
158	2	38	0	-2
158	16	53	10	-9
158	15	11	-1	0
158	16	6	-1	7
157	-46	19	-8	3
158	-60	17	-36	8
158	-103	26	-15	7
157	-122	16	-6	-3
158	-60	25	23	2
157	48	11	35	5
158	95	-16	37	7
158	204	-15	48	16
157	285	13	72	16
157	244	29	71	11
158	168	20	11	-1
158	56	37	-57	-6
157	-46	57	-75	-15
157	-154	56	-32	-25
157	-119	30	-30	-14
158	-54	-25	-47	-10
157	-53	-7	-22	-9
157	-37	-13	-2	-4
158	-23	-13	21	6
157	0	68	16	6
157	-2	32	21	1
157	18	40	71	-2
157	15	46	92	-2
158	-14	63	26	8
158	-34	46	-94	17
157	-30	-82	-41	23
157	-8	-126	38	20
158	-25	-64	7	4
159	-13	43	16	-17
158	8	39	8	-13
158	22	36	41	-1
158	40	36	58	4
158	29	65	38	0
158	-32	44	20	4
158	-80	-25	-24	7
158	-68	-14	-21	-9
157	-54	5	-11	0
157	28	115	-13	6
157	182	102	-19	7
158	161	33	-17	7
157	139	54	-20	0
158	102	28	-12	-3
158	-55	-3	25	-3
158	-135	-12	47	4
158	-81	6	70	0
157	28	9	111	-2
159	-91	5	111	-15
158	-44	19	38	-14
157	36	45	-81	7
158	-1	56	-66	9
157	21	48	22	2
157	-10	43	-36	3
158	19	11	-26	4
159	-7	2	2	2
157	11	8	-26	7
158	15	6	-20	2
158	-93	-9	-26	-1
158	-114	8	-3	1
158	1	23	-9	4
157	38	-5	5	12
158	29	-33	12	7
158	104	-23	2	2
158	183	49	4	-2
158	146	52	-16	2
157	57	29	-19	1
158	21	36	12	6
158	-62	49	81	11
158	-33	50	82	-9
158	0	43	87	-11
158	8	38	119	-2
158	25	28	49	4
157	4	9	1	-1
158	-4	-19	9	-7
158	-14	22	47	2
157	50	-3	-47	3
158	73	-40	-161	2
158	-15	-1	-81	3
157	-27	15	-64	9
158	-44	50	-34	1
157	-191	18	24	0
159	-221	-2	5	3
158	-65	72	24	1
159	13	-22	6	7
158	22	-131	11	8
157	104	-22	29	3
158	99	-8	29	-2
158	67	-8	7	-7
157	75	-12	-7	-5
157	15	-51	30	-1
158	-9	41	27	11
158	-1	127	28	4
157	7	85	37	0
157	-3	46	33	8
157	-2	72	46	-6
158	37	50	30	-12
157	55	62	-3	-12
157	32	62	12	-10
157	-7	31	7	2
157	-69	12	-9	4
158	-147	19	13	5
157	-93	18	32	14
157	-20	-1	42	19
157	-80	3	18	10
158	-110	6	-32	-8
158	-20	18	-55	4
158	79	4	-45	9
158	93	-10	-15	-1
158	94	-4	-17	5
158	144	8	-18	-7
158	162	9	-3	-1
158	101	33	6	3
158	68	73	6	3
158	40	71	26	7
158	47	72	32	0
158	58	81	-27	-6
158	-9	15	-69	-4
157	-63	-42	-73	2
158	-89	-24	-43	0
158	-37	-11	15	0
158	-12	-17	59	3
158	-7	-3	49	6
157	4	-2	41	-6
158	3	8	87	-4
157	4	20	127	0
157	-37	24	122	-6
158	-63	36	65	-4
157	-68	31	29	0
158	-3	17	11	8
158	48	-8	18	0
157	38	-16	-12	2
157	63	-6	-68	4
157	77	6	-33	5
157	52	11	-12	2
157	-50	19	-12	0
157	-65	34	-22	-1
158	49	50	-19	-8
157	15	54	21	-6
157	-28	42	74	-8
158	-33	8	87	-8
157	-29	-34	4	4
158	-8	-59	-68	11
157	-14	-47	-41	2
158	5	42	45	6
158	10	77	52	11
158	24	63	-31	14
158	34	104	-104	21
158	-60	66	-12	11
157	-157	51	23	2
158	-85	55	-21	2
158	-37	10	-1	-6
157	-47	17	-37	-4
158	-25	-5	-1	0
157	96	-4	-2	1
157	169	-9	-25	-15
158	71	-62	-10	-15
157	77	-8	9	11
158	62	45	53	11
157	67	22	40	7
158	61	21	0	-2
158	15	19	1	-5
157	13	6	65	3
157	-9	-5	33	-4
158	7	0	-35	3
158	-10	5	0	1
157	-20	22	47	-4
158	-24	50	-1	-1
158	-42	73	-97	-6
158	-25	106	-66	-2
158	-4	106	-13	-1
157	10	3	-13	4
158	12	-84	36	9
158	67	-14	82	8
157	96	9	89	6
157	13	9	52	-2
157	-4	13	0	8
158	96	30	-26	7
158	37	38	8	-2
158	-49	15	32	2
157	-48	12	22	9
158	-16	-5	45	-1
157	-27	8	30	-4
158	-25	-6	46	-1
157	-73	4	54	-6
157	-160	40	18	2
158	-79	48	6	6
158	-117	43	6	2
157	-107	51	13	9
158	5	48	-2	6
157	34	-13	-8	0
158	82	-30	-1	0
157	112	-12	-5	-3
158	136	14	-3	3
157	106	31	45	7
158	43	-1	28	10
158	14	-20	-61	9
157	0	-22	-54	4
157	14	-10	-18	3
157	19	11	-36	-4
158	5	26	-35	-4
158	5	43	-15	2
157	1	54	4	3
157	22	70	14	0
157	42	46	21	7
158	11	18	32	9
157	4	32	52	2
157	18	47	66	3
157	-43	42	15	5
157	-94	-119	-96	2
159	-4	-238	-90	4
158	124	40	1	-2
158	137	174	25	-6
158	89	62	63	-7
158	77	67	58	-2
157	21	59	12	6
157	-96	73	18	8
157	-128	24	13	6
157	-63	30	43	3
158	-46	43	111	-2
158	-92	24	58	-4
157	-69	60	-86	-5
158	5	95	-89	-32
158	20	33	-12	-16
157	-10	-90	4	6
