File Name: not saved
Channel 3: 'EKG', 22950 values, raw ADC, no filters.
Channel 4: 'FCR_EMG', 22950 values, raw ADC, no filters.
Channel 5: 'FCU_EMG', 22950 values, raw ADC, no filters.
Channel 7: 'ECU_EMG', 22950 values, raw ADC, no filters.
Channel 8: 'ECR_EMG', 22950 values, raw ADC, no filters.

157	1	19	13	-1
158	-1	15	16	0
158	-2	20	19	3
158	-13	21	30	7
158	-28	14	21	8
158	-16	14	-3	10
158	4	19	1	-1
158	6	19	17	1
158	15	15	29	9
158	23	14	10	0
158	31	19	-13	-11
158	26	28	-4	-13
158	11	17	4	-2
158	9	18	9	2
157	12	25	2	-3
158	17	22	-11	2
158	18	19	-11	5
157	7	19	-1	2
157	-1	22	12	3
158	-9	20	21	2
158	-13	14	10	2
158	-3	11	-7	0
157	3	15	-14	-4
158	10	13	-23	0
158	13	17	10	3
158	13	23	22	6
157	15	19	10	2
157	11	18	11	10
158	5	10	15	9
158	2	14	31	-5
158	0	19	32	-7
159	0	16	2	-8
157	0	18	-7	-5
158	0	19	26	-8
157	-1	16	13	-1
158	-1	19	-15	4
157	-3	24	-10	3
158	-12	19	12	0
157	-15	17	-6	1
158	-2	19	-23	12
158	1	19	7	3
157	7	21	5	7
158	18	19	13	7
158	23	19	19	2
158	22	20	9	1
158	17	19	9	5
157	20	20	6	4
158	23	19	10	-1
158	14	17	8	-1
157	-1	22	15	-2
158	0	22	14	1
157	7	18	18	4
158	0	19	17	4
158	0	15	15	5
158	15	17	19	-3
158	19	21	25	-4
157	7	25	30	3
157	-5	25	3	6
158	-5	21	1	2
158	-11	19	10	8
158	-15	15	-2	4
158	-13	13	3	-3
157	-8	14	5	-6
159	3	15	0	-3
157	16	16	-6	2
158	26	21	-6	3
157	21	19	-15	3
157	8	17	-26	1
158	11	22	-8	-7
158	17	24	0	-6
158	11	21	5	2
157	7	20	23	1
157	0	11	31	3
158	-4	10	32	-4
158	-4	18	20	-4
158	-5	19	23	4
158	-8	25	33	3
157	-24	26	32	4
158	-25	13	13	5
158	1	9	-26	11
158	9	7	-13	5
157	10	7	-5	-8
157	18	19	-35	-4
158	24	16	-10	-7
157	27	19	13	-5
157	18	21	-2	-2
158	9	17	0	1
157	4	19	0	4
158	9	20	5	6
157	17	23	5	6
158	20	23	5	5
157	7	20	27	10
158	2	19	29	9
158	3	18	17	4
157	1	21	9	-1
157	0	23	31	-4
157	-2	23	35	-9
158	5	21	22	-13
158	2	16	13	-5
157	2	16	-23	2
158	5	17	-24	12
157	1	15	-7	11
157	-1	14	-3	9
157	-16	15	0	13
158	-15	16	-8	7
158	-4	19	-11	-1
157	0	22	-12	-8
158	-5	21	3	-2
158	-3	18	15	11
157	8	15	11	9
157	14	17	11	8
158	19	19	10	13
158	17	20	16	3
158	16	21	24	2
158	20	20	28	1
157	24	21	19	1
157	22	21	4	8
158	9	19	7	2
157	-9	18	16	-3
157	-7	15	23	4
158	9	17	15	-4
158	8	14	8	-10
157	3	11	21	-16
157	2	20	10	-9
158	17	14	7	2
158	8	15	9	2
158	-11	26	-1	0
157	-6	25	12	-5
158	11	21	15	0
157	18	19	22	4
158	12	17	-4	3
158	3	19	-22	0
158	1	21	7	-2
159	5	22	18	0
158	2	26	1	3
157	-9	22	-13	2
157	-22	12	-12	4
157	-16	12	-8	6
158	4	17	13	2
157	2	14	22	1
158	7	13	2	-1
158	14	13	-10	-2
157	20	13	-13	-5
157	29	23	-10	-4
158	24	21	8	0
158	19	18	12	-2
158	11	19	7	2
158	1	22	13	2
158	-7	21	9	2
158	-6	17	10	2
157	9	22	13	4
157	14	22	14	7
158	4	19	15	7
158	-2	16	10	9
157	0	16	20	7
157	-1	16	21	10
158	-4	14	7	3
157	-6	13	-15	-2
158	-1	15	-36	-2
157	8	18	-8	-14
157	14	17	20	-5
158	9	15	8	7
157	6	17	12	-1
157	8	19	23	-4
157	5	18	29	-9
158	2	18	29	-5
158	0	18	24	-4
157	3	18	23	-2
157	8	19	16	4
157	8	18	1	6
158	4	19	1	13
157	4	18	4	7
158	7	19	-6	-1
158	3	20	-2	-6
158	2	12	3	-10
158	1	14	7	1
157	-11	14	13	0
158	-13	17	8	0
158	-7	17	-3	2
157	-9	17	-28	6
158	-5	18	-11	9
157	9	19	8	8
157	10	15	19	13
157	16	15	35	4
157	19	20	28	3
158	21	18	10	-2
158	23	19	5	-6
158	25	20	25	2
157	35	22	44	9
159	31	23	53	7
157	14	24	53	2
158	-3	19	10	-1
157	-5	19	-57	-6
158	-1	24	-37	-7
157	-1	22	-9	-4
157	0	18	-26	4
157	9	8	-18	8
158	22	15	-11	6
158	38	22	24	1
157	30	19	45	-6
158	13	22	30	-2
157	-6	19	16	10
157	-55	19	0	12
157	-61	16	-2	9
157	-32	14	5	11
158	-30	17	-7	14
158	-11	19	-17	3
158	20	19	10	-10
157	39	22	17	-18
157	35	22	9	-7
158	12	22	-11	0
157	20	24	-19	-4
157	34	22	15	-2
157	16	19	29	0
157	10	19	17	6
158	10	19	9	4
157	2	21	-3	4
158	1	20	-6	3
157	-2	18	4	7
158	-3	17	1	10
158	-2	13	2	6
158	0	14	7	0
157	0	18	10	2
157	-4	14	12	1
157	1	15	17	-1
157	3	15	22	2
157	3	18	15	2
157	6	22	4	3
158	1	18	7	4
158	2	21	9	-3
158	5	19	10	-1
157	9	19	21	3
157	7	21	37	-2
157	5	19	22	0
158	5	13	-15	12
158	2	10	-7	11
158	3	10	22	4
158	4	14	1	-10
158	8	22	-15	-11
158	5	20	-3	-8
158	3	21	-13	-10
158	3	22	-14	-6
157	7	18	11	2
158	9	17	22	3
157	5	15	19	-3
158	6	17	28	-3
158	5	18	24	2
158	3	21	16	4
157	-1	22	3	4
157	-10	21	-4	5
158	-6	15	5	3
157	7	11	-5	2
158	12	16	-3	2
157	13	14	-3	2
158	-1	17	2	5
158	1	21	15	9
157	10	16	12	10
158	10	19	21	4
158	12	15	10	0
158	8	17	3	-10
157	9	19	6	-7
158	19	19	4	0
157	31	22	1	2
157	33	19	1	-1
157	16	20	6	-4
158	11	18	10	2
157	16	19	14	3
158	9	19	11	4
158	-10	21	21	8
157	-22	24	30	6
158	-23	21	19	-6
158	-15	15	-5	-6
158	-3	17	-20	-5
158	5	18	-4	1
158	23	20	5	6
158	25	23	-3	6
157	11	18	-10	9
157	5	17	-20	7
157	7	17	-18	1
157	4	19	-7	-1
158	-1	17	13	0
158	2	20	28	2
158	3	17	24	4
158	0	9	5	4
157	-3	13	-26	-1
158	-18	18	-4	-6
158	-36	17	15	-7
158	-20	22	-7	0
157	-10	17	8	8
157	-16	14	23	6
158	6	18	26	1
158	28	24	32	0
158	43	21	35	6
158	43	21	28	2
157	34	21	12	-10
158	30	19	14	-7
158	14	22	15	0
158	10	21	8	4
158	10	16	6	5
158	3	18	19	-1
158	1	20	30	2
158	0	21	20	2
157	0	17	14	-1
157	-1	13	20	0
158	1	16	5	-2
157	3	19	-7	1
158	-1	16	-6	-1
157	-5	17	-7	3
158	-7	18	6	5
158	-6	18	9	2
158	-7	21	9	3
157	3	17	12	2
158	7	13	1	7
157	1	11	5	2
158	-1	13	8	6
158	4	15	-10	6
157	13	21	-24	10
157	10	18	-16	6
157	10	17	3	-7
158	9	21	4	-5
158	9	23	8	-4
157	10	22	8	-1
157	7	18	6	3
157	8	19	6	2
157	2	21	5	3
158	-1	21	17	2
158	0	19	25	2
157	-6	18	25	2
158	-7	15	24	3
158	-4	16	13	-1
157	-1	17	-27	-1
157	-3	15	-51	5
157	-11	17	-32	2
159	0	12	-1	3
159	15	10	7	10
157	15	16	1	5
157	16	21	-4	1
158	11	19	15	-4
158	8	16	27	-8
157	-2	17	28	-6
158	-2	17	36	-4
159	20	24	18	-4
157	21	22	24	-2
158	18	18	32	6
158	15	17	16	2
157	17	22	14	4
158	32	27	6	11
157	23	19	15	11
158	14	17	23	8
157	31	19	19	-6
158	34	20	5	-11
157	14	20	5	-5
157	1	13	7	5
157	1	14	3	9
157	4	20	9	6
158	-5	18	6	11
157	-6	18	2	4
158	-7	20	-8	-8
158	-9	17	-14	-8
159	-8	19	-4	-4
158	-7	21	-2	-2
157	-3	19	3	0
158	-2	19	5	4
157	-3	14	-2	8
157	-13	11	-6	10
157	-18	12	-1	6
157	-9	17	-5	-1
157	11	17	-6	-1
158	5	19	1	3
157	0	18	8	4
158	8	20	18	2
157	14	22	24	0
157	15	21	10	8
158	5	24	-1	8
158	5	24	15	3
157	8	23	7	7
157	12	22	-11	8
158	26	21	16	9
157	18	23	66	4
157	7	22	50	-7
158	9	14	-20	-14
157	1	17	-42	-9
158	-8	17	-20	-4
158	-25	19	7	-14
158	-34	20	15	-10
157	-9	18	7	-10
158	3	22	19	-5
157	2	19	16	3
158	8	13	5	2
157	6	19	10	4
158	-17	20	4	2
157	-45	15	7	4
158	-45	19	5	4
157	-17	16	4	2
157	8	13	-1	7
158	28	14	-8	15
158	34	13	6	11
158	44	15	16	8
157	66	19	22	8
158	65	22	26	0
157	53	24	8	3
158	41	23	17	0
157	24	15	25	-1
157	12	17	12	6
158	7	15	23	5
158	3	15	9	2
157	0	18	-9	-4
158	1	16	-7	-1
157	-3	15	0	2
157	-13	18	12	0
157	-21	15	12	1
158	-17	15	18	1
157	-21	16	20	6
158	-16	18	12	7
157	-5	19	10	4
157	0	20	23	-6
158	23	22	29	-3
158	29	15	22	-6
157	2	9	9	-7
157	-19	10	-14	-8
158	0	17	-11	-5
157	12	24	8	-1
159	0	21	18	0
158	2	19	16	-2
158	15	17	-4	-6
158	24	22	-12	-6
158	12	25	1	-5
157	7	22	-10	6
158	9	21	-22	6
158	7	19	-3	6
158	1	19	-10	4
158	4	21	-7	3
157	3	18	4	12
158	1	15	-2	12
158	1	14	0	8
157	1	15	-4	3
156	0	19	-8	1
157	1	21	-4	-2
158	3	24	16	-4
157	-1	22	28	0
158	2	16	20	1
158	-4	16	10	4
158	-5	17	17	7
157	5	15	39	6
158	10	19	59	6
157	12	21	50	-4
158	10	22	5	-1
157	10	22	-10	0
157	5	16	0	-7
157	3	18	-17	-1
158	3	19	-19	0
157	3	15	-23	2
158	4	12	-16	-2
157	3	17	-4	-5
158	5	19	-15	-1
158	5	17	-6	4
158	5	15	2	9
158	7	12	0	11
158	4	16	3	12
159	2	13	37	10
157	1	14	42	6
158	-2	21	27	-2
158	3	16	46	-10
159	5	15	42	-12
157	8	18	30	2
157	8	14	35	10
158	9	16	28	0
157	15	22	23	-13
157	7	21	18	-8
158	-29	23	-10	-4
158	-50	22	-39	-6
157	-17	23	-40	0
157	3	23	-28	-1
157	4	19	-20	0
158	10	19	-14	0
157	19	21	-14	3
158	43	23	-14	3
157	45	26	-5	0
157	45	26	2	0
159	48	21	5	5
157	31	19	6	10
158	17	18	33	3
158	13	21	58	6
157	11	17	47	7
158	1	16	8	2
157	-11	19	-3	0
158	-15	19	19	-4
158	-19	17	5	2
157	-19	8	5	0
157	-11	13	1	-5
158	-2	18	-4	-2
158	14	22	0	4
158	16	19	-4	5
158	8	17	15	4
158	1	18	29	3
157	4	14	30	3
158	5	14	15	0
158	0	18	12	0
157	0	17	8	2
158	1	19	10	-1
157	-2	18	12	0
158	-3	16	9	5
157	1	16	21	2
157	3	14	13	6
158	1	15	-13	11
158	-5	14	-21	7
157	-19	14	0	4
158	-14	14	-8	0
158	7	15	-12	-7
157	8	15	-1	-10
157	4	21	1	-7
157	15	23	10	0
157	23	21	17	-2
158	20	27	9	-1
158	11	23	-7	4
158	8	22	1	1
157	9	21	14	-1
157	6	17	10	-4
158	9	19	15	2
157	4	18	15	6
158	-5	18	15	11
158	-4	17	5	16
158	7	22	-3	11
158	34	22	-14	6
157	34	17	-22	-1
157	3	22	-7	-8
158	-16	19	8	-9
158	-24	15	19	-2
158	-13	17	36	4
158	-24	21	34	7
158	-47	22	22	4
157	-31	18	5	8
157	-5	14	8	5
157	17	17	19	-2
158	35	23	-5	0
158	24	19	-3	-2
158	11	19	14	-7
157	13	24	3	-5
158	16	22	-5	-4
158	27	18	-16	1
158	36	15	-7	6
158	38	18	1	7
158	30	18	-1	6
157	27	21	8	7
157	32	21	9	0
158	31	19	9	-1
157	10	17	14	3
157	-4	13	24	1
157	-3	17	26	-7
158	-8	16	44	-7
158	-8	15	58	0
158	-9	19	40	-8
158	-5	17	26	-9
157	-6	15	20	-1
158	-5	14	19	6
158	-4	14	18	9
157	-5	15	19	7
157	-3	17	7	3
157	0	19	-27	2
157	1	22	-31	-1
157	0	19	-4	-1
157	1	18	-7	4
159	0	17	-7	0
159	0	15	-6	0
157	-2	17	-6	4
156	-1	16	2	4
157	-1	19	-7	6
158	-2	18	-6	5
158	4	20	-5	2
157	8	21	7	4
159	8	15	9	9
158	7	17	-2	4
157	10	19	-10	4
157	10	20	-2	2
157	8	22	16	-1
158	11	16	0	-3
157	4	14	3	-13
157	4	17	20	-9
157	10	21	22	-3
158	9	22	19	-4
158	10	15	-4	2
159	8	12	-11	6
158	8	15	-4	7
157	3	19	-1	7
157	3	18	0	-6
157	4	19	5	-5
157	5	18	13	4
158	4	19	12	7
158	3	22	18	8
158	1	17	25	2
157	5	18	8	-1
158	3	19	-3	2
158	2	19	17	-2
157	-3	19	10	9
158	-1	15	-7	7
157	12	15	7	-2
158	16	19	8	0
157	13	19	11	-2
157	12	19	23	0
158	19	17	32	-7
157	21	19	23	-4
158	12	25	4	4
157	3	24	2	5
158	5	23	-1	6
157	2	21	-1	6
158	-5	17	-6	1
158	-3	16	-13	-5
158	-1	18	-25	-9
157	4	14	-13	-5
158	2	13	29	-1
157	-20	15	27	-7
158	-29	19	20	1
158	-9	22	8	2
158	-4	19	9	6
158	-6	18	44	9
157	4	15	42	4
158	14	17	25	2
157	19	28	16	2
158	19	28	15	8
158	16	22	10	2
158	21	18	0	8
158	32	17	-1	3
158	25	15	-1	3
157	24	21	0	1
158	32	22	3	-4
159	30	19	-4	4
157	24	21	-8	2
157	15	17	3	3
157	10	15	6	-1
157	7	17	1	-1
157	-1	17	10	-5
157	-1	15	18	-2
158	-4	13	25	6
157	-7	15	28	7
157	-7	15	9	9
158	-8	11	-5	6
158	-4	13	-30	7
158	-1	19	-35	0
158	-4	15	0	0
157	-4	16	-3	-1
157	-5	19	8	-4
157	-3	19	2	-3
157	-3	18	1	-5
158	-3	16	10	1
157	-1	16	4	-2
157	-1	16	12	-1
157	2	17	3	3
158	0	19	13	1
158	3	22	10	2
157	1	18	10	2
157	2	21	12	4
157	5	21	10	9
158	5	21	22	13
158	5	22	8	7
158	2	20	2	7
158	5	15	-5	1
158	8	21	1	-5
157	6	19	12	-13
158	5	13	24	-17
158	5	16	26	-6
157	2	20	15	-3
157	8	23	17	2
158	7	17	5	7
157	7	8	-6	3
158	7	10	-15	1
158	4	14	-1	-5
158	3	13	14	-5
157	2	19	6	4
158	6	17	7	4
159	7	21	4	0
157	13	21	0	-5
158	16	21	-6	5
158	10	24	-8	11
158	4	18	5	10
157	3	17	15	12
157	4	17	16	5
157	7	22	5	1
158	3	21	25	-14
157	3	21	40	-12
158	10	19	15	-10
158	10	21	13	0
158	9	23	22	9
158	8	21	23	3
158	5	19	1	4
158	3	17	-15	6
158	4	15	-17	10
157	3	21	-24	5
158	4	19	14	4
157	5	16	57	7
157	6	20	72	0
158	3	17	60	3
157	3	19	4	7
157	7	21	-10	7
158	5	15	-18	11
157	3	17	-36	10
158	0	19	-16	3
157	3	19	-17	4
158	3	23	-13	3
158	0	24	0	3
158	-4	19	6	3
157	-4	19	10	-1
158	-3	19	4	-7
158	5	18	-20	-5
157	8	21	-50	-1
158	-2	20	-11	0
157	5	15	8	7
157	11	16	3	8
158	18	17	22	14
158	27	19	19	10
157	23	22	20	7
158	22	20	47	10
157	22	14	62	11
157	16	15	1	4
157	4	15	7	-3
158	1	14	6	-4
158	-2	14	0	-18
158	-5	18	19	-28
157	-3	13	-8	-32
158	0	12	-1	-31
158	1	13	-7	-19
158	-7	14	13	-6
157	-16	14	28	-2
157	-16	21	26	9
157	1	24	16	10
157	6	17	20	11
157	10	17	22	14
157	13	17	-5	7
158	10	21	-2	1
158	-3	21	-4	-7
158	-27	21	2	-12
158	-11	19	4	-8
157	9	22	-14	0
157	15	22	-1	8
158	18	18	21	11
157	21	19	1	10
157	38	24	-1	8
157	41	26	5	9
157	24	24	-8	4
159	9	22	18	4
158	-5	21	23	4
158	-17	17	14	3
158	-12	17	10	9
157	-4	14	13	15
157	-1	15	11	11
158	2	18	6	9
157	2	16	8	11
157	11	18	5	9
158	18	17	19	10
158	21	16	29	6
158	20	17	24	0
158	12	15	-7	-3
158	12	11	-10	-10
157	7	15	1	-10
157	0	15	-17	2
157	2	15	-8	-1
158	-1	18	0	-6
157	-3	17	-6	-1
158	-3	18	-14	0
158	-2	20	-26	2
157	-1	19	-10	1
157	3	17	6	3
157	8	15	18	8
158	3	15	13	4
157	0	21	5	-1
158	-1	23	17	-7
157	1	25	17	-3
157	3	24	18	-1
158	5	21	16	-6
159	3	21	19	-1
157	2	22	6	19
157	1	15	-18	36
157	2	15	-13	25
158	3	19	-3	18
158	7	24	10	5
158	5	21	16	2
157	7	18	13	0
157	4	15	35	-8
159	3	15	40	-13
157	5	17	-6	-21
157	4	15	-19	-25
157	7	16	21	-30
159	4	16	35	-18
158	5	19	49	-28
158	5	22	50	-33
157	5	19	37	-32
158	3	16	50	-28
158	2	18	34	-15
158	9	19	25	-8
157	10	18	15	-3
157	8	21	-18	4
158	10	23	-30	11
157	8	22	-28	9
158	8	17	-12	13
157	5	17	-17	9
157	5	20	-16	11
157	3	17	9	14
158	0	16	12	17
157	3	21	-1	17
157	3	20	-41	13
157	7	17	-45	17
158	7	16	-11	7
158	5	19	15	4
157	4	19	4	8
158	4	14	-8	18
157	4	14	9	22
157	5	18	9	18
158	10	22	13	10
158	9	18	10	13
157	5	15	9	12
158	4	15	17	4
157	6	13	22	6
158	-2	11	19	2
157	-22	14	1	8
157	-25	17	7	4
158	-8	18	10	3
157	-2	20	20	2
158	4	18	32	-3
157	13	18	22	-2
157	25	18	3	-2
158	46	23	-4	8
157	39	25	7	7
157	24	23	11	4
158	24	20	13	2
158	25	16	15	2
158	18	19	12	-1
157	9	19	19	-5
157	4	22	18	-1
157	1	21	-3	0
158	1	19	-15	0
157	-1	19	0	2
157	-3	18	4	6
157	-1	17	-4	6
158	-5	15	-3	0
158	-7	15	1	-2
157	-17	19	5	-8
157	-26	21	8	-15
158	-15	19	13	-9
158	-5	18	10	0
158	-4	17	6	-1
157	0	11	2	2
157	-5	10	-7	2
158	-1	14	-9	-5
158	12	20	-6	-3
158	16	22	-2	-1
157	18	21	23	-5
158	19	19	44	7
157	19	19	60	7
157	27	13	62	8
158	25	13	23	0
158	20	22	-10	-10
157	14	23	5	-4
158	10	21	18	-2
158	15	21	0	-5
158	9	21	-3	-11
158	4	21	1	-8
158	1	22	-2	-4
158	-1	19	4	3
158	1	18	0	7
158	-3	19	-25	6
158	0	21	-41	6
158	-3	21	-34	4
157	-4	16	-29	4
157	-4	15	-27	2
158	-4	14	-14	0
158	-3	14	18	-2
157	1	19	50	0
158	3	19	74	11
157	0	18	72	10
157	0	19	52	7
159	0	22	51	10
158	0	18	35	13
158	1	17	7	14
157	3	19	-27	13
158	3	17	-39	7
157	1	23	-20	4
158	3	23	30	9
158	5	20	33	-2
158	5	20	-28	7
158	8	16	-41	32
157	2	7	-43	33
158	4	8	-37	29
157	5	18	-41	39
158	4	17	-10	41
157	7	17	-26	31
157	8	21	-42	4
159	6	15	57	-41
158	-1	7	69	-93
158	10	22	46	-136
157	20	37	64	-143
158	18	35	90	-136
158	11	27	64	-103
157	10	23	40	-41
158	8	22	97	4
157	8	11	70	28
157	9	11	1	30
158	10	17	-11	22
157	4	19	-26	15
157	3	13	-49	23
158	2	11	-32	22
158	3	14	1	23
158	5	18	-29	39
158	5	22	-51	34
158	3	16	45	34
157	3	15	69	38
157	3	17	-5	39
157	1	17	-16	39
157	4	21	-19	35
157	6	25	6	26
158	5	26	8	19
157	12	22	-19	22
157	17	15	-13	22
158	10	14	-21	23
158	4	19	-19	30
157	2	9	-23	24
158	-6	6	-68	5
158	-3	15	-60	-13
157	4	14	2	-15
157	2	22	20	1
157	3	23	54	-6
157	6	22	67	-4
158	5	19	32	-1
157	8	19	-17	6
158	10	22	-16	17
157	7	20	39	10
158	6	17	42	14
157	2	17	59	9
157	1	18	30	7
158	0	20	9	6
157	-4	19	29	12
157	-5	12	-41	28
157	3	17	-83	18
158	16	25	-48	26
157	18	22	-75	40
158	8	18	-82	31
157	6	19	-16	26
157	5	22	23	2
158	4	21	111	-24
158	10	20	151	-46
158	13	14	5	-72
159	12	19	-97	-79
157	9	27	-40	-64
158	9	26	-23	-49
158	0	12	30	-33
158	-17	-6	149	-25
157	-21	-9	88	-41
158	-13	17	53	-21
157	-1	25	50	31
158	1	11	-5	79
158	17	24	90	102
157	26	28	88	98
157	16	26	108	68
157	15	19	104	11
157	16	15	-83	-41
158	17	28	-165	-84
158	8	25	-106	-125
158	9	25	-24	-131
157	15	27	5	-98
157	7	20	90	-75
158	-5	17	112	-40
157	-8	9	126	11
158	0	8	74	43
157	5	22	-15	67
158	5	27	-39	77
158	1	17	-226	60
158	0	17	-164	35
158	3	21	-73	3
157	2	24	-112	-38
157	3	26	-116	4
158	5	22	-146	60
157	4	23	24	72
158	9	20	120	87
158	5	-1	124	56
157	1	-4	283	37
157	4	11	498	13
157	4	15	118	-17
158	3	18	-375	-30
157	-1	10	-249	-47
157	1	10	-71	-57
158	1	9	120	-69
158	4	17	89	-49
157	8	24	-124	-46
157	5	21	-101	-40
157	4	29	-81	-20
158	3	29	-70	-20
158	2	14	218	0
157	1	5	314	9
158	5	20	42	20
157	9	28	-28	30
158	8	28	5	18
158	5	29	50	30
157	5	26	86	35
158	7	22	42	35
158	6	20	-51	36
157	-6	18	13	19
158	-27	9	74	13
158	-18	11	2	9
157	5	14	8	-2
158	8	18	-16	4
157	15	14	-36	9
158	19	14	-68	4
158	25	22	-99	2
157	33	17	-112	12
158	20	17	-135	17
158	19	18	-66	13
158	19	20	-31	16
158	16	17	-39	17
158	15	21	0	10
157	13	17	33	6
158	3	17	53	-7
158	-3	23	62	-8
158	-8	18	29	-1
158	-11	19	-39	11
158	0	14	-16	26
158	2	12	57	11
158	0	11	50	-5
157	-7	16	30	-16
158	-6	15	-26	-18
157	-1	13	1	-13
158	-2	16	43	-9
158	-1	15	4	-6
158	-2	17	21	-8
158	-7	18	8	-4
157	-9	18	10	-3
157	8	17	11	2
157	23	22	10	6
158	21	25	38	9
158	13	19	53	3
157	12	22	96	3
157	8	22	67	0
157	4	26	18	0
158	2	26	110	-2
158	4	18	77	0
158	3	14	-57	-5
157	8	14	-10	-21
158	12	14	-38	-11
157	5	19	-66	-3
158	1	24	-42	9
157	1	18	-30	12
158	14	22	-25	11
157	17	26	-28	19
157	7	24	-11	20
157	2	26	-50	21
157	1	22	-79	16
158	6	22	-10	-1
157	6	19	77	-31
157	1	15	36	-52
158	-7	15	-3	-52
157	-32	15	88	-36
158	-43	17	113	-17
157	-19	22	34	16
158	-4	18	144	31
158	10	14	52	26
157	25	11	25	26
158	40	16	117	41
157	54	22	-56	27
157	36	21	-37	-13
157	21	18	-40	-28
158	25	18	-6	-29
157	24	27	6	-3
158	12	23	-19	0
157	-1	19	-84	-11
158	-4	18	-140	-11
157	-1	21	-66	-40
158	-1	24	-92	-43
158	-1	18	-61	-18
157	-2	11	-12	-16
158	-8	1	51	-18
158	-11	4	59	-13
158	-6	13	193	-1
158	-4	18	174	21
157	1	18	-62	27
158	3	9	-24	30
157	1	14	31	24
158	1	18	87	28
157	0	14	30	35
157	1	17	38	29
157	3	19	16	26
158	4	21	-36	17
158	3	22	9	5
157	3	28	-83	-11
157	8	27	-4	-23
157	9	19	33	-1
157	8	22	-36	28
157	9	20	-68	29
158	7	10	-70	38
157	3	3	5	32
157	3	2	34	6
158	6	14	45	-4
158	8	21	49	-13
157	10	24	51	-30
157	11	25	14	-21
158	7	16	-14	-18
157	7	21	-15	-25
158	8	25	0	-16
157	3	23	72	-8
157	-11	21	55	14
157	-21	22	-58	18
157	1	23	-12	15
158	9	19	49	6
157	4	16	-2	5
158	3	13	13	7
158	3	17	-31	14
157	17	25	-29	9
158	29	33	21	-12
157	38	33	5	-21
158	31	26	-47	-24
157	18	17	-90	4
158	7	9	-14	3
158	-19	12	-12	-13
158	-46	21	48	-7
157	-71	14	81	7
158	-49	10	63	10
157	5	11	117	9
157	21	19	-1	-3
157	34	20	-30	0
158	48	18	-18	14
157	67	25	-67	14
158	63	25	-45	9
157	38	25	-18	0
158	17	24	22	-2
158	9	17	38	5
158	15	13	34	6
157	14	15	38	-5
157	18	22	4	-3
157	3	20	-19	2
158	0	16	-10	-4
157	8	15	-11	-8
158	12	17	-44	-3
157	-8	16	-18	-5
157	-26	17	73	1
158	-5	14	84	7
158	8	13	49	2
158	-13	17	42	8
157	-46	7	21	4
157	-42	11	-20	0
157	-1	17	-14	9
158	3	20	-112	12
157	-4	18	-132	12
158	16	15	-35	17
157	18	21	-17	23
158	-2	23	41	32
158	-13	21	38	30
158	-9	17	89	22
158	-5	16	123	19
157	-5	22	106	11
158	1	29	142	1
157	3	26	92	1
157	9	21	83	-23
158	10	17	44	-55
158	9	23	94	-60
158	9	20	131	-77
158	6	17	22	-78
158	5	12	69	-36
158	9	-3	-40	-8
158	8	6	-134	-5
159	13	17	-60	14
157	14	22	-183	7
158	9	14	-183	-12
158	4	11	-91	-4
157	8	22	-82	7
158	9	19	-49	15
157	8	17	-7	28
158	8	22	33	34
158	4	17	20	26
158	2	21	5	29
158	4	26	41	37
158	11	24	89	47
157	13	24	58	46
157	10	21	71	46
157	9	13	70	41
158	5	15	20	22
157	2	18	-23	-12
157	-14	13	-43	-36
157	-13	9	-81	-57
158	6	11	-89	-71
157	11	21	33	-54
157	10	22	111	-36
157	13	19	164	-38
157	18	21	84	-13
157	20	18	-57	13
157	12	26	-68	4
157	17	31	-107	11
158	29	26	-47	17
158	23	24	-30	21
157	4	19	8	21
158	9	21	26	22
157	4	20	-98	20
157	-2	19	-40	19
158	1	17	8	10
158	-2	22	27	-12
158	2	29	49	-3
158	4	21	99	0
158	1	17	62	3
158	-2	18	19	9
158	-5	16	88	13
158	-9	18	38	15
157	-11	23	30	18
157	-9	9	-16	19
157	-7	9	-52	10
158	-4	8	-70	15
157	-4	2	-24	12
158	-14	11	47	4
158	-11	10	-6	7
158	24	24	151	9
157	39	22	163	10
158	2	17	-65	-2
158	-23	22	-39	-18
157	-3	17	-51	-19
158	10	20	-39	-14
158	3	25	13	-10
157	15	33	-2	-1
158	55	27	78	-3
157	81	23	36	-4
158	81	23	-21	13
158	62	24	22	15
157	31	19	83	0
158	-13	13	-3	-5
158	-66	15	-84	-17
158	-66	17	-20	-22
157	-31	8	-2	2
158	-20	2	-17	10
157	23	12	-6	5
158	44	13	4	6
158	15	14	1	-2
158	20	7	0	2
157	13	12	8	2
158	-15	22	30	2
158	-37	21	32	8
157	-39	29	32	14
158	-17	25	20	18
157	10	22	-6	10
157	21	25	-23	-10
158	30	17	-51	-30
157	47	19	-44	-16
158	29	22	-32	-11
158	3	16	15	-9
157	-14	14	43	-1
158	-33	18	-26	3
158	-30	19	27	15
157	-11	17	71	16
157	14	14	-2	20
158	10	17	-71	24
158	-8	19	-118	21
157	-3	10	-24	13
158	-10	14	51	15
157	-4	18	29	17
158	-1	15	70	12
158	-3	16	145	7
158	-5	20	142	-1
159	-12	21	-32	-11
159	-2	24	-63	-35
157	-3	18	97	-42
158	5	19	72	-32
157	13	26	6	-33
158	28	30	52	-12
158	41	29	188	2
157	27	19	34	5
158	21	23	-161	13
157	18	20	-78	2
158	16	11	-2	-29
158	8	9	-18	-38
157	1	21	-111	-9
157	4	11	-30	3
158	0	-6	146	20
158	-3	3	134	41
157	-1	17	-87	59
158	7	36	61	50
158	4	39	77	-6
158	3	30	-123	-36
157	12	22	71	-49
157	13	17	79	-65
157	10	17	-31	-70
158	8	18	-78	-30
158	6	18	-167	3
157	5	14	-241	23
158	4	17	-101	22
158	4	19	-82	4
157	7	24	-25	17
158	5	20	178	15
157	2	9	113	26
158	7	14	87	38
157	7	17	127	21
158	3	17	96	6
157	3	17	46	2
158	-1	15	38	5
158	0	19	-29	31
158	5	19	-141	53
158	7	22	-120	60
157	4	21	-78	52
158	-3	19	22	37
157	7	12	40	26
157	16	15	53	-2
158	15	26	51	-23
157	8	32	-79	-38
157	0	29	39	-47
157	3	19	133	-54
158	2	15	103	-54
158	3	18	34	-49
157	0	24	2	-24
158	-1	15	90	5
157	-4	6	104	13
158	-9	10	67	26
157	-43	21	26	18
158	-66	24	58	13
157	-18	17	-13	-1
157	8	19	-91	-3
158	14	17	-11	7
158	33	14	1	6
157	63	17	-20	14
159	118	21	-49	14
158	98	13	-66	14
158	68	14	-64	11
158	58	15	-44	13
158	5	12	-11	10
159	-47	14	4	7
157	-66	17	24	4
158	-8	28	27	-2
158	25	28	23	0
157	-6	23	12	3
158	-18	23	8	2
157	-20	22	4	6
157	-40	15	-10	4
158	-30	15	13	-5
158	9	14	28	-4
158	31	15	36	0
158	1	15	39	8
157	-4	13	12	10
157	31	19	-9	11
158	-7	24	-18	13
158	-18	30	-52	7
157	-17	24	-90	-3
157	-29	18	-59	-8
158	-20	18	-32	-6
158	-11	16	-12	0
158	10	20	89	7
157	15	20	215	4
157	25	17	211	5
157	19	13	68	0
157	-5	19	-1	-17
158	-12	17	-5	-9
157	0	5	-17	12
158	6	15	-77	11
158	8	17	-183	5
158	9	14	-200	2
158	10	26	-58	-23
157	19	23	58	-39
158	30	21	9	-21
158	29	15	26	-7
158	20	13	122	-9
158	12	19	127	-12
157	14	19	-10	-10
158	23	19	36	-4
158	18	13	12	0
158	-3	16	-126	7
158	-26	16	-8	13
157	-30	16	47	18
158	-4	15	137	34
157	5	6	53	34
157	12	15	-80	27
158	20	24	-34	6
158	27	18	-53	-2
158	32	22	44	1
157	15	26	60	-13
157	11	25	8	-12
158	8	14	43	-43
157	5	9	88	-45
157	4	14	-13	-24
158	1	18	-39	-21
158	-4	13	55	-13
157	-36	9	16	-1
158	-48	21	8	10
159	-27	21	10	6
158	-9	19	-16	17
159	1	22	-14	12
158	21	19	15	2
158	27	22	25	5
158	52	21	23	8
158	77	18	2	9
157	56	11	31	12
158	33	7	92	33
158	3	24	58	39
157	-14	23	15	31
158	-11	17	-18	34
158	-31	14	-70	34
158	-50	8	-133	29
157	-28	15	-156	16
158	-12	19	-46	-2
158	-13	30	65	-25
157	1	33	26	-27
157	7	21	-31	-36
157	4	21	-2	-48
158	5	28	19	-34
157	10	26	38	-26
157	8	26	54	-17
158	7	21	32	-9
157	4	15	55	9
158	10	18	86	11
158	16	17	41	9
159	14	11	-110	23
158	7	21	-101	10
157	0	18	29	-2
158	-5	17	0	5
157	1	18	25	9
158	8	18	21	11
158	19	19	10	16
157	24	19	19	11
158	16	19	-8	3
158	-4	17	26	3
158	-29	13	39	6
157	-30	16	61	10
157	-40	16	44	5
158	-18	7	51	-5
158	35	10	38	-5
158	51	16	-33	-5
157	12	15	-1	0
158	-1	19	10	-5
157	81	21	-96	5
159	56	29	-77	19
158	4	25	59	5
157	11	18	6	7
158	-4	28	25	3
158	6	22	46	5
158	-3	21	-29	7
157	-1	21	-12	6
157	-1	22	-34	0
157	-1	14	29	-2
158	4	14	55	-1
158	3	19	30	-8
158	4	18	5	0
157	0	23	31	-1
157	-5	17	61	-3
158	-5	17	32	-9
157	-1	12	32	-15
158	-8	12	-2	-3
158	-24	15	7	3
158	-67	9	-40	11
158	-72	5	-65	4
158	-20	8	-37	-13
157	0	13	-37	-2
158	29	18	-64	8
158	54	23	-81	-4
157	64	24	-7	-6
158	87	25	46	2
157	85	23	77	6
157	72	14	91	-8
158	33	14	122	-14
157	-10	23	56	-1
158	-8	24	-6	7
157	10	29	25	4
158	10	26	5	2
158	-12	17	11	13
158	-12	14	-35	15
158	-6	14	2	-4
158	-15	19	97	-6
157	-16	24	62	-2
157	-3	21	-9	0
158	7	18	-37	9
158	-1	10	-25	-5
158	0	14	-69	-2
157	11	24	-61	10
158	-3	16	-33	4
158	-12	15	5	0
157	-17	15	110	-1
158	-12	17	85	2
157	1	18	-32	4
157	0	19	-47	9
158	-3	22	-5	4
158	-16	17	19	3
157	-13	15	32	11
157	-9	12	-48	19
157	-5	17	-43	12
157	6	22	1	1
158	15	19	-29	8
158	31	23	-8	3
157	26	21	-12	-5
157	17	18	-17	-7
157	15	17	38	-7
157	15	11	57	2
158	10	18	-2	10
157	7	22	-6	6
158	1	13	26	2
158	2	14	1	1
157	8	11	2	-17
158	7	13	22	-27
158	12	18	13	-17
158	28	18	6	-7
157	29	17	-18	-9
158	12	24	15	0
157	7	25	82	9
158	-1	16	43	9
157	-15	12	-14	15
158	-27	21	18	7
158	-42	22	37	7
157	-14	21	-6	0
158	12	18	-17	-8
158	0	18	7	-1
158	8	20	-3	-5
157	5	21	1	-12
157	7	27	43	-4
157	10	18	6	9
157	7	19	14	20
157	13	17	33	21
157	10	12	-3	13
158	11	15	2	-4
158	8	21	-9	-9
158	3	23	1	2
157	-7	18	-3	-3
157	-11	21	-12	1
158	3	23	-10	8
158	13	23	4	5
158	19	17	10	9
157	24	14	-8	10
158	27	18	7	6
158	32	18	18	-4
157	35	18	29	2
157	19	15	34	5
158	-2	10	38	7
157	-7	13	59	-7
157	-16	15	15	-4
158	-17	10	-42	-4
158	-17	24	28	-11
157	-1	19	56	-7
157	1	19	12	-2
158	-13	16	15	6
158	3	13	-45	4
158	11	21	-37	4
157	8	19	4	5
158	19	22	0	6
157	25	19	0	0
158	25	21	-14	-4
157	16	19	-21	-8
158	12	18	-58	-1
158	13	19	-32	3
158	6	19	-32	2
157	4	22	-9	7
157	-2	19	101	-2
158	-3	23	155	-3
157	-3	19	111	8
157	-1	14	-36	9
157	9	18	-92	1
158	8	16	-61	-5
158	1	9	-3	1
158	-1	19	46	2
157	3	24	96	8
158	0	25	96	17
158	-1	18	-8	14
158	1	22	-38	4
158	-1	30	24	-3
157	-3	19	-14	-5
157	-5	18	-70	-7
158	-4	12	23	-28
157	0	14	96	-33
157	9	14	86	-2
157	9	5	4	10
158	7	23	-80	0
158	6	25	-113	-1
158	10	20	-82	4
158	11	19	-33	0
157	5	19	-18	-7
157	5	22	-6	0
157	7	18	-14	5
158	5	24	9	15
158	8	27	53	17
158	12	21	104	11
157	11	11	93	16
158	8	11	-47	15
158	5	20	-93	4
157	1	22	4	-18
158	-7	22	2	-17
158	0	21	-7	-4
158	5	20	19	-4
158	5	21	-18	1
159	10	23	-6	8
157	10	19	6	10
158	10	12	-16	3
157	4	13	-38	9
157	4	15	26	9
157	4	18	155	10
157	2	18	143	16
157	4	17	16	15
157	8	18	11	9
158	3	13	12	-8
158	4	12	23	-6
157	5	19	52	0
157	5	22	34	3
157	10	22	80	-1
159	12	21	22	4
157	-3	10	-50	17
158	-20	7	-43	10
157	-21	10	2	-11
157	-20	11	6	-9
158	-15	15	-49	8
158	-4	17	-93	3
157	7	22	-86	-1
157	15	21	-27	-6
157	27	25	-3	-6
157	38	27	77	-5
158	42	24	75	4
157	47	24	45	14
157	39	21	72	4
158	32	23	48	-3
157	21	20	34	-6
157	8	19	-36	-16
157	3	20	-33	-16
158	1	21	-33	-15
157	-3	19	-12	-15
158	-7	18	40	-2
157	-15	11	31	6
158	-28	8	99	8
158	-39	15	18	15
157	-22	22	-59	13
158	2	19	31	13
158	12	6	15	9
158	22	18	-48	-6
159	22	24	-51	-17
158	19	20	-22	-7
157	16	25	-6	0
157	8	20	-1	6
157	11	14	37	10
158	11	15	45	8
158	3	15	7	0
158	0	22	-33	0
157	0	24	-3	10
158	0	15	12	9
157	0	16	-10	3
157	-5	22	6	8
158	-4	21	-14	13
158	-1	18	2	9
157	-7	12	29	2
157	-17	11	33	2
158	-14	19	49	-1
158	-2	18	37	-22
157	5	19	-56	-26
158	17	23	-132	-6
158	17	24	-56	-6
158	22	17	26	-5
158	27	15	52	1
157	14	20	-16	-3
158	8	23	-36	7
158	4	20	-1	9
158	5	15	-11	-6
157	1	20	60	-2
157	0	15	61	6
157	1	11	61	7
157	2	12	62	4
158	0	19	13	0
157	-3	16	-12	-1
157	1	17	-36	2
157	-2	19	-29	8
157	2	18	43	7
158	12	15	90	4
158	15	21	50	7
158	10	23	29	10
158	1	16	19	7
158	4	19	15	0
158	7	21	-6	4
158	6	13	-14	3
157	10	21	-18	-7
158	9	26	5	-1
158	8	21	66	9
158	7	13	101	12
157	3	11	55	11
157	-4	21	11	9
157	-10	18	65	4
158	-20	9	-1	5
158	-21	14	-91	8
157	1	19	-55	-6
158	23	17	-74	-5
158	26	16	-63	-8
158	27	17	-20	-6
157	31	22	-19	-11
158	32	21	-6	-17
158	21	18	-19	-6
158	8	19	-21	-4
158	0	23	-34	-7
157	-5	23	-1	-12
158	-30	17	49	4
158	-42	24	52	6
158	-7	23	84	7
157	16	19	39	17
158	8	15	-32	17
158	14	16	-21	11
158	22	20	21	11
157	29	17	22	16
157	29	24	26	10
158	16	21	-6	16
157	14	14	10	18
157	11	15	116	18
158	5	17	64	8
158	3	27	44	-1
158	3	21	65	-5
157	1	12	-71	-20
158	-5	14	-96	-28
157	-5	13	17	-33
157	-6	12	-38	-32
157	-4	18	-58	-23
158	-1	22	18	-22
157	0	19	-10	-14
158	2	21	0	-5
158	0	21	2	-3
158	3	19	8	2
157	1	19	14	6
158	1	16	23	9
158	-5	20	56	4
158	-16	22	28	3
157	-14	18	-18	13
158	-1	18	-29	21
158	4	13	16	20
158	10	13	6	16
158	12	17	0	18
158	11	21	0	16
157	22	19	-9	14
157	31	14	8	16
158	35	13	19	13
157	31	17	36	0
158	17	17	19	6
158	4	14	15	10
158	-2	16	13	13
157	-11	13	13	7
158	-3	15	4	-7
157	4	18	-31	-8
157	-1	27	-10	-6
158	0	27	37	-2
158	0	23	56	-3
158	0	19	68	4
157	0	16	78	7
159	3	20	32	2
158	3	17	-45	-2
158	1	16	-72	-4
158	-5	22	-55	9
158	-12	13	-2	9
157	-20	4	20	6
158	-3	13	-22	7
157	5	20	-44	-1
158	11	18	-12	-12
158	25	13	0	-14
157	27	15	22	-8
158	22	23	53	-2
157	9	26	-1	-1
159	1	24	18	0
158	1	23	13	1
158	3	19	-7	0
158	2	19	10	3
158	5	17	-2	-6
158	10	22	31	-10
158	13	24	28	0
158	13	21	47	-3
158	4	14	57	-8
158	1	7	5	-2
157	4	23	-45	0
157	1	25	-16	-13
158	-11	19	2	-12
157	-5	18	-20	-6
157	-6	14	19	3
158	-8	15	31	6
157	0	17	27	6
158	28	21	0	14
157	49	24	13	7
158	28	17	15	10
158	12	17	-15	9
158	14	17	-30	1
158	11	22	-45	4
158	7	19	-12	11
158	0	15	18	9
157	-4	18	60	-4
157	-3	20	45	2
157	0	16	22	0
157	3	15	24	-4
158	-1	14	-10	10
157	0	12	2	13
158	3	14	-2	9
157	0	18	-18	6
158	1	21	-16	3
157	-1	19	-15	-3
158	-4	19	-11	-7
158	-1	22	27	3
158	3	21	71	1
158	7	21	49	-2
158	5	25	43	-6
157	4	24	60	-5
157	2	15	62	-4
158	0	14	29	-7
157	4	14	-30	-4
157	1	15	-59	-1
158	4	19	-58	-1
158	5	20	-35	12
157	10	15	0	16
158	8	13	26	4
157	2	13	9	10
158	3	12	9	16
157	2	14	-17	17
158	4	17	-75	10
157	5	21	-88	7
158	3	19	-86	2
158	5	15	-1	0
159	5	19	119	-2
158	3	15	140	-7
158	5	19	90	-7
157	8	26	89	-6
158	9	17	18	-6
157	7	18	3	-25
157	7	21	58	-34
157	7	27	6	-20
158	7	15	10	-11
157	3	7	14	-21
158	7	18	24	-17
157	7	23	-9	-2
157	5	23	0	-1
158	8	25	15	2
158	8	24	-53	15
158	8	17	-64	22
157	9	15	-9	15
158	12	18	7	17
158	8	19	-81	24
158	3	22	-19	25
158	8	22	107	25
158	14	17	90	25
157	14	19	-23	31
158	7	15	-38	16
157	-3	7	-36	0
157	-8	9	-36	-5
158	-4	20	33	-15
157	8	26	-37	-14
158	11	19	-33	-17
158	8	22	25	-24
157	8	26	-25	-30
157	3	22	-7	-29
158	1	17	51	-15
158	4	18	34	-2
158	-5	18	-7	7
157	-32	17	2	14
158	-41	18	-10	13
157	-36	14	15	12
158	-25	14	38	17
157	-6	11	35	17
157	7	8	19	13
158	17	10	-43	16
158	41	19	-49	6
157	66	28	16	4
157	59	26	41	-7
158	35	29	39	-9
157	25	24	57	10
159	30	19	23	8
158	41	21	6	7
158	31	16	3	6
158	17	22	-11	3
158	16	20	29	7
158	9	17	42	6
158	3	19	43	8
158	1	18	14	9
157	-5	18	3	14
157	-6	14	9	12
157	-12	14	4	-8
158	-13	15	16	-9
157	-7	15	12	-2
158	-6	13	14	-2
157	-6	17	2	-1
157	-13	18	8	-5
157	-12	23	16	-4
157	-11	22	15	-7
158	-8	16	-11	-2
158	1	19	-12	-2
158	5	20	20	-2
158	0	23	16	-3
158	-6	24	15	-4
157	-6	18	6	-1
158	-3	19	16	2
158	0	23	11	4
158	1	18	-24	6
158	5	16	-45	13
157	5	17	-45	13
158	4	19	-31	15
157	9	17	-7	13
158	8	19	1	7
158	5	18	-10	-2
157	5	14	-6	-6
158	8	15	22	-3
158	5	14	66	-13
157	4	19	81	-4
158	3	21	52	3
157	1	23	46	-9
157	5	15	-39	6
158	11	15	-135	-5
158	12	17	-70	-4
157	7	10	-9	10
157	5	13	95	4
157	5	14	104	0
158	8	18	-6	-17
158	9	26	20	-24
157	7	23	22	-23
158	7	12	11	-22
158	7	19	36	-29
158	7	21	78	-32
158	3	19	106	-13
157	5	25	67	3
158	6	16	8	3
157	9	22	-111	11
158	11	31	-102	6
158	7	23	-35	11
157	4	18	-84	14
158	7	18	-62	17
158	5	13	-33	26
158	7	19	-23	15
157	5	19	29	2
159	1	7	48	-14
158	3	5	81	-5
157	10	8	73	4
157	13	14	20	6
157	5	25	14	19
158	3	23	-11	17
157	1	21	-32	2
158	1	19	-1	-3
158	4	12	4	-15
157	5	16	31	-17
157	4	19	45	-2
158	1	19	1	-6
158	4	22	5	4
158	8	20	23	12
157	5	16	19	12
158	-4	18	2	12
157	-29	17	-13	7
158	-43	20	23	18
158	-13	16	45	25
158	1	14	-5	23
158	12	19	-41	12
157	32	16	-7	6
157	29	17	-8	4
157	22	22	9	2
158	16	25	37	8
158	13	24	14	11
157	20	15	20	7
157	27	9	5	-2
158	35	19	-17	-8
157	38	21	-13	-15
158	27	20	-3	-9
158	15	26	2	-5
158	-7	22	7	-6
158	-13	24	18	-5
157	4	22	14	-1
158	19	21	16	3
157	17	22	28	2
157	7	19	11	3
157	8	15	-21	11
158	7	14	-25	20
158	0	15	-20	25
158	-3	21	-35	27
158	-6	21	-9	19
157	-7	15	43	25
157	-7	17	34	21
158	-10	19	19	9
157	-8	17	34	-4
158	-8	18	21	-18
157	-7	20	5	-32
157	-5	16	24	-41
157	0	20	34	-46
157	-2	22	43	-55
158	0	17	42	-55
157	3	15	3	-41
157	-2	14	-28	-13
157	0	21	-7	2
157	5	25	33	2
157	0	23	24	7
157	1	14	-98	6
157	3	11	-167	4
158	2	6	42	-6
157	0	6	123	2
158	4	18	0	9
157	4	22	64	6
158	3	27	34	11
157	7	27	29	11
157	2	24	125	11
157	4	19	35	8
157	9	13	-20	13
157	9	17	-27	15
158	8	11	6	21
158	9	9	1	15
158	9	19	-12	4
158	10	22	2	16
158	8	23	-16	15
158	6	22	-7	9
157	7	19	-15	12
157	9	21	-17	9
158	7	19	-21	8
158	7	18	5	19
157	11	22	41	19
157	6	18	24	8
157	8	15	-31	3
158	12	19	-28	-11
157	1	11	1	-21
157	3	14	-19	-15
157	5	20	15	-8
157	3	18	0	4
159	4	19	16	4
158	5	20	80	7
157	7	19	42	17
158	9	24	-16	14
157	9	28	-23	10
157	10	24	15	-5
158	7	22	17	-12
158	5	21	12	0
158	7	13	9	3
158	3	13	20	-6
157	3	15	9	-8
158	8	16	-20	-6
157	9	17	-13	-12
158	7	17	-7	-6
158	5	15	-10	-3
158	4	18	-3	2
157	7	18	15	7
157	15	19	41	-1
157	12	19	37	-1
157	5	18	-12	5
159	1	19	-52	0
157	-7	18	1	2
158	-8	18	63	7
158	-3	15	44	4
157	2	15	26	4
157	4	21	20	5
158	7	25	5	6
158	6	22	9	3
158	1	24	10	1
157	-5	19	12	2
158	-8	17	11	1
157	-6	15	3	8
157	-1	15	-19	7
159	5	20	-25	9
157	11	17	-8	15
157	23	13	-12	8
158	25	21	-12	-1
157	19	23	-15	0
157	12	22	-12	-4
157	15	22	15	-7
158	14	14	10	-13
158	-2	18	-18	-8
158	4	21	-27	4
158	18	19	13	12
158	19	19	30	9
158	5	21	10	6
158	5	20	20	9
158	4	15	43	10
157	-2	15	63	11
158	-1	11	58	11
158	-2	14	31	10
157	1	17	21	-8
158	1	15	18	-15
158	-3	14	13	-25
157	-8	12	29	-39
158	-5	13	-36	-25
157	-1	15	-148	-12
157	3	22	-64	-6
158	3	19	0	-5
157	3	8	-43	6
158	6	10	24	4
158	1	15	53	-10
158	1	17	77	-13
158	5	23	89	-6
158	8	21	56	1
158	10	19	45	5
157	7	21	11	12
158	7	19	18	10
158	5	19	8	11
158	5	15	11	9
158	4	16	9	4
159	5	19	1	8
158	7	21	-6	7
157	4	17	-11	7
158	5	17	1	12
157	2	17	-3	15
158	-8	16	2	12
158	-19	19	0	19
157	-8	23	4	18
157	7	21	2	14
158	14	21	-4	11
157	19	17	-9	7
157	22	12	-15	-1
158	27	15	0	-9
157	26	17	9	-10
157	18	13	26	-14
157	8	17	18	-17
158	7	21	-4	-17
158	4	22	-6	-19
158	0	21	-16	-12
157	3	16	26	-13
158	0	14	48	-12
158	4	17	-45	-14
159	7	23	-65	-9
158	8	24	14	0
157	8	17	43	5
158	7	21	31	9
158	8	19	8	7
158	5	20	-10	11
158	2	17	-2	8
157	1	16	-3	14
158	3	14	26	14
157	2	17	39	6
157	3	18	19	7
157	7	20	-13	13
158	9	30	-1	12
158	5	17	38	5
158	1	18	5	15
158	1	19	9	1
157	0	18	29	0
158	1	22	17	-1
157	2	21	7	-14
158	1	22	37	-1
158	3	18	23	6
158	4	13	-5	-1
158	5	15	9	-4
158	5	19	-14	16
158	5	14	-4	14
158	4	19	-8	6
158	4	21	-6	0
159	3	20	1	-8
158	5	18	2	-9
158	3	21	2	-9
157	3	22	-15	-2
158	3	17	-2	5
157	3	19	3	8
157	1	17	6	9
157	2	17	11	11
158	5	17	25	2
157	7	19	28	1
159	7	18	19	-2
157	3	15	24	-8
157	7	19	20	1
157	9	17	14	4
157	5	15	5	13
158	5	19	5	29
158	5	19	6	24
158	4	16	19	16
157	3	18	23	10
157	10	13	-25	-5
158	10	11	-86	-5
158	5	19	-45	1
158	2	19	39	0
158	1	21	36	1
157	1	25	16	-9
158	10	22	2	-13
158	9	21	-3	-14
158	1	13	0	-21
157	3	16	-1	-21
157	3	23	-1	-27
157	3	21	7	-38
157	3	19	34	-37
157	3	17	31	-22
157	5	15	40	-14
158	3	17	46	-12
158	4	18	44	-3
158	6	15	45	5
158	6	15	17	7
158	5	12	-27	13
158	3	15	-37	19
157	5	16	-25	16
158	5	14	-26	19
158	3	19	-2	23
158	0	19	20	20
158	1	20	25	15
158	3	22	28	19
157	10	18	15	15
158	24	15	-8	9
158	16	19	-31	10
158	-1	23	-25	8
158	3	21	-25	9
158	1	18	-13	9
158	-8	15	-15	11
158	-9	14	-15	8
157	-7	17	41	2
157	-3	21	69	-7
157	5	18	26	-9
157	18	18	-23	2
157	34	19	-8	7
157	30	22	-17	2
157	19	23	-2	4
157	16	24	10	13
157	17	21	10	16
157	10	15	52	11
158	3	14	41	4
157	1	15	59	-2
158	1	19	56	-3
157	1	22	35	-10
158	3	19	32	-26
158	-1	21	14	-28
158	0	19	-2	-32
158	1	17	-28	-26
158	3	16	-43	-12
157	3	13	-19	1
157	0	16	13	7
158	7	15	8	10
158	8	22	19	8
158	5	19	39	8
159	5	17	11	15
158	3	22	-24	14
158	2	22	-24	13
157	2	25	15	12
158	-1	19	65	13
158	1	11	91	16
157	3	13	-4	6
159	5	14	-77	-4
157	4	16	-24	-11
157	4	24	-2	-24
158	5	26	3	-21
157	1	18	21	-9
157	-1	19	-10	-5
157	-1	21	-7	-4
158	-2	19	27	-10
157	3	16	28	-2
158	9	18	-19	11
157	16	22	-27	9
158	14	19	-6	10
158	9	17	-43	9
158	7	17	-47	3
157	5	15	-47	-1
157	5	17	-26	4
158	2	14	14	10
157	-1	17	43	9
157	-1	18	58	12
157	-1	18	24	10
157	0	18	26	10
158	2	18	51	14
158	1	13	36	2
158	3	15	43	-4
157	5	17	46	-3
158	7	17	13	-4
158	5	20	10	-2
158	6	14	0	1
158	7	16	5	4
157	5	23	8	0
157	11	25	-3	-1
157	13	20	7	0
158	8	22	16	3
158	4	28	48	10
157	0	25	49	6
157	-6	9	-38	10
158	0	7	-116	8
158	3	11	-34	4
158	1	9	23	-6
157	3	16	-4	-12
157	3	15	33	-8
157	2	14	40	-15
158	3	19	21	-12
157	4	24	-13	2
158	7	24	10	4
158	10	22	63	14
157	10	21	30	8
158	8	19	16	-1
157	4	19	14	-5
158	-13	18	18	-14
158	-14	23	14	-8
157	1	18	7	-5
157	9	15	4	-4
157	16	16	-24	-14
158	13	18	-60	-10
157	11	17	-47	-7
158	11	17	-17	-12
158	9	22	-26	2
157	18	25	-14	2
158	32	25	10	4
157	26	20	33	3
158	-4	17	17	4
157	-17	21	6	9
157	-13	18	21	7
158	-4	17	21	4
157	5	18	12	7
157	9	16	12	11
157	9	14	24	11
157	10	17	28	18
157	19	20	23	20
158	24	16	2	17
158	21	17	19	3
158	22	19	34	-4
157	14	19	35	0
158	10	20	26	3
158	9	12	-27	18
158	0	5	-31	14
158	-1	14	-23	14
158	0	19	-27	15
158	-3	17	19	4
157	-2	19	32	7
157	-2	24	27	4
157	-1	21	57	-1
158	-4	18	42	-9
157	-2	15	41	-9
157	1	13	9	-14
158	3	21	-95	-14
158	3	23	-78	-9
157	3	23	-28	-10
158	4	25	-35	5
158	5	24	-11	0
158	0	8	8	1
157	0	2	77	-14
157	-3	14	112	-35
157	1	24	48	-14
158	0	25	118	-1
157	0	15	84	-1
158	2	17	-56	4
158	3	20	-17	0
158	3	17	-13	0
157	1	18	-2	11
157	3	18	26	10
158	5	21	24	7
158	0	19	19	-1
158	2	19	-82	1
158	2	23	-112	11
158	4	21	-9	9
158	5	15	22	5
157	9	20	-19	4
158	11	29	20	0
158	8	21	26	6
157	7	19	25	10
158	6	19	40	3
157	6	17	35	2
157	3	18	36	7
157	4	13	9	9
158	7	14	-7	10
158	8	19	-27	8
158	7	16	8	4
158	4	19	13	2
158	8	19	-22	2
157	10	17	6	-5
157	7	15	4	-7
158	4	17	-7	-4
158	7	19	12	-2
157	9	21	19	3
157	6	18	-3	0
158	11	15	-27	5
157	10	21	-22	17
158	8	18	-20	17
157	5	11	-33	19
157	3	9	-6	-6
158	5	15	31	-25
158	10	23	27	-13
158	14	25	14	-15
157	15	21	6	-16
159	12	21	15	-5
157	7	19	9	4
157	0	14	16	1
157	-7	14	30	-1
157	-2	11	26	9
158	4	15	34	12
157	0	19	33	11
157	-4	21	31	11
158	-3	22	27	18
157	-1	21	36	17
157	7	17	34	7
158	25	21	13	-3
157	21	24	0	-2
157	12	20	-18	-6
158	12	22	-26	-10
157	5	15	-30	-9
157	1	17	-33	-9
158	3	14	-28	-2
157	2	9	-8	-5
158	4	15	6	-6
157	4	12	13	2
158	3	13	5	3
158	3	19	21	1
157	3	24	28	0
158	4	26	8	-2
157	3	22	22	-1
158	5	13	30	9
158	4	15	33	8
158	5	17	0	2
158	4	16	-37	0
157	3	22	-38	0
157	7	21	-12	4
158	7	19	1	5
157	7	17	-9	7
158	4	13	36	4
158	2	14	47	9
157	1	16	-1	13
157	2	17	-22	8
158	-1	18	30	-2
157	1	23	9	-1
157	4	21	6	4
158	3	21	37	9
158	9	22	-8	16
158	8	20	47	19
157	5	19	64	9
157	1	15	-5	-9
157	-13	17	-36	-24
158	-27	18	14	-39
157	-28	18	69	-32
157	-21	22	68	-26
158	-2	20	10	-10
158	15	19	-49	3
158	20	14	-10	5
157	29	17	-3	8
157	37	21	10	6
157	47	21	38	7
158	40	21	59	10
157	26	13	125	4
158	16	13	46	7
158	16	18	-111	20
157	8	21	-75	15
158	-2	16	-15	9
157	-1	17	-26	14
157	-3	14	72	16
157	0	14	86	17
157	0	19	-26	7
158	-2	22	-54	1
157	-2	14	-48	6
158	0	17	-21	2
157	-3	19	22	-9
158	-3	15	-15	2
157	2	23	-19	0
157	0	23	-13	-10
157	-1	16	-19	-2
158	-2	14	12	-7
157	-3	15	19	-7
157	1	17	38	-5
158	4	23	17	-9
157	1	21	-4	-15
158	-1	22	-7	-13
157	3	24	-25	-4
158	0	21	-24	-5
157	1	20	-15	2
158	5	17	-4	7
158	5	13	2	7
157	5	17	6	6
159	8	22	6	14
157	5	18	5	21
157	5	19	6	15
158	7	21	16	4
157	7	19	10	0
158	8	24	12	-4
158	7	20	35	2
158	5	17	33	14
158	5	14	16	17
158	5	17	8	17
158	5	19	5	22
157	6	8	21	17
158	6	14	22	3
158	4	24	28	2
157	5	21	31	2
158	8	15	-3	-9
158	7	10	-12	-28
157	5	16	-3	-38
157	7	20	21	-42
157	6	17	37	-51
158	5	21	37	-37
158	6	20	35	-22
158	4	18	21	-9
157	3	19	-6	7
157	7	19	-8	7
157	5	17	4	9
158	4	19	-11	15
158	5	20	2	18
158	11	23	10	15
158	15	23	54	20
158	17	17	85	26
158	4	8	4	19
157	-5	14	-91	22
158	-6	17	-36	18
158	-13	13	41	15
158	-5	15	-29	13
158	14	19	-88	10
158	26	28	-45	11
157	13	27	48	3
157	3	24	43	-1
157	5	23	46	-10
157	3	21	60	-9
158	3	22	23	2
158	0	17	16	7
158	-1	13	-3	9
158	0	15	-1	11
158	-2	19	-5	11
158	-3	17	-3	3
158	1	17	1	-5
157	8	17	9	-16
157	3	14	-1	-19
158	8	17	-19	-6
157	3	19	-14	4
158	12	17	-15	4
157	27	16	5	4
157	23	18	18	5
157	8	21	29	7
158	-1	22	39	10
157	2	21	48	15
157	0	15	51	18
158	-1	12	39	-2
157	3	21	23	-14
158	8	22	-9	0
157	3	17	-43	2
158	3	22	-34	12
157	3	13	-11	14
157	1	13	-4	8
157	3	14	33	15
157	3	13	36	6
157	5	20	9	0
157	6	21	11	0
157	5	15	15	0
158	3	14	20	-1
157	2	17	26	-7
158	2	11	10	-8
157	1	11	-83	-14
157	7	26	-114	-26
159	4	22	-65	-28
157	3	19	-104	-30
158	3	19	-100	-37
157	6	17	-58	-24
157	9	21	16	-12
157	4	19	137	-6
158	8	19	166	10
158	8	24	97	24
158	8	21	86	17
157	9	19	87	7
157	6	22	4	-7
157	7	24	15	-14
158	3	21	21	-13
158	1	20	33	-1
158	4	6	-8	10
158	5	3	-80	0
157	3	14	-24	2
158	5	17	23	6
158	4	22	46	18
158	6	24	21	22
158	4	19	22	11
157	4	18	62	11
157	5	19	53	9
158	3	17	39	6
157	3	19	-12	2
158	5	21	-18	13
158	3	23	47	17
157	3	24	46	11
158	4	17	6	9
157	6	17	-72	11
158	10	24	-68	10
158	10	25	16	4
158	7	21	-15	7
158	6	17	-6	7
158	2	14	16	7
158	-5	11	33	6
158	-21	11	11	6
157	-25	17	-73	6
158	-12	19	-42	2
157	-6	13	-2	-1
158	8	15	-20	3
158	16	21	-15	0
157	25	20	-10	1
158	44	28	-1	1
158	60	25	27	-1
157	46	21	30	0
157	20	21	32	-1
157	4	13	3	6
157	-11	10	-25	-1
158	-6	11	-10	0
158	-8	13	-24	4
157	-6	15	-11	-5
158	-1	17	10	-4
157	2	19	23	-4
158	10	24	41	-8
158	17	27	37	-4
157	24	23	28	1
158	18	13	19	2
157	15	16	16	4
157	11	20	18	9
158	8	13	25	1
158	3	14	6	-9
158	0	15	-16	-8
157	-2	17	-1	-11
157	-3	19	4	-16
157	-6	15	-3	-16
158	-5	15	1	-20
157	-3	14	9	-11
157	-6	14	15	-1
157	-3	17	12	3
158	-5	18	17	1
157	-8	18	20	-2
158	-4	20	10	7
158	-3	24	8	5
158	3	23	12	1
157	8	23	5	3
157	7	22	0	-2
157	4	20	1	-4
157	0	22	9	-4
157	1	22	16	5
158	0	19	21	11
158	3	19	25	10
157	4	16	22	15
158	8	17	29	17
158	5	21	22	15
157	10	21	-5	15
158	11	17	-8	11
157	5	13	-8	14
158	9	15	-23	12
158	9	18	-12	7
157	3	21	6	9
157	-1	17	44	-1
157	2	14	19	-5
158	5	14	-61	-14
157	10	12	-43	-21
158	5	18	0	-17
158	7	18	25	-11
157	19	13	-1	-2
157	21	17	3	2
158	13	22	40	7
158	1	23	15	2
157	-1	24	23	-7
157	1	16	9	-2
157	4	17	-11	6
158	6	21	13	4
158	4	21	14	2
157	7	21	-2	-3
159	5	17	10	3
157	5	11	11	7
157	4	14	4	2
157	5	19	9	3
157	5	16	0	4
157	5	20	15	10
158	5	19	17	11
157	4	18	30	14
158	6	14	45	12
158	5	18	34	-4
158	7	26	24	-8
158	5	19	6	2
158	5	16	-12	4
157	9	17	-8	0
158	5	16	-2	-3
158	3	18	-10	-6
158	3	19	-5	-6
158	3	20	4	1
157	6	19	12	4
157	3	17	19	14
157	3	15	39	6
158	3	22	48	-12
158	1	21	31	-3
157	2	14	20	-2
157	-2	11	-36	-1
158	2	19	-69	0
157	14	25	10	-1
157	20	22	43	0
157	12	19	40	8
158	3	16	21	12
158	10	19	-62	11
157	5	18	-33	2
157	2	17	-22	-12
157	4	21	-35	-6
158	3	19	-8	-4
157	0	19	-9	1
158	-16	17	8	0
157	-8	19	8	-11
158	8	21	15	-2
158	11	17	17	3
157	8	17	28	7
158	8	16	38	12
157	11	21	34	2
157	19	18	37	1
157	11	21	27	-5
157	0	15	23	-9
157	0	15	8	-10
158	-4	17	6	1
158	-15	19	1	6
157	-16	24	2	8
158	-3	18	14	13
157	-1	17	13	9
158	8	17	-1	10
158	12	19	-4	1
158	12	21	-3	2
157	20	22	4	6
158	27	24	21	6
157	26	24	32	7
158	25	19	35	4
158	22	13	0	-2
157	14	11	-31	-14
158	15	21	-10	-8
158	4	19	18	-8
157	1	16	-15	-10
158	3	15	-35	-10
158	0	16	-19	-12
157	0	19	-3	1
157	-3	17	-1	0
158	-3	22	-2	2
157	-1	18	7	6
158	1	21	16	5
157	3	22	23	11
157	0	13	16	9
157	1	13	-9	9
158	2	19	-9	-1
158	1	22	13	-9
158	1	18	10	3
157	3	13	6	12
157	2	16	-3	6
157	-1	19	-5	7
158	-1	15	3	7
158	3	17	10	7
157	3	14	14	13
157	3	15	11	8
158	5	20	22	7
157	7	24	22	9
157	8	24	49	3
158	7	17	79	0
158	3	6	73	-2
158	0	1	1	-13
157	4	24	-55	-6
157	7	23	-10	1
158	5	19	-4	-3
158	3	22	-6	2
158	3	17	5	2
157	3	21	1	0
157	3	14	12	0
158	4	15	-6	1
158	7	21	-31	6
158	7	20	-42	4
157	5	18	-24	5
157	8	22	24	2
157	7	20	39	-1
158	8	17	31	-7
157	9	23	22	-9
157	6	22	-3	-5
158	5	25	2	-3
157	5	22	30	4
159	6	22	57	2
158	3	13	43	-1
158	5	15	-29	4
157	10	27	-27	2
158	7	23	9	6
157	8	21	-13	10
157	8	17	16	1
157	5	21	25	1
158	10	21	7	0
157	9	19	-15	-1
157	13	21	-54	10
157	8	13	-34	4
158	4	12	-20	4
156	5	15	-4	13
158	3	16	18	13
157	6	21	44	7
157	2	18	72	0
158	-4	15	71	8
158	0	13	36	9
158	0	12	30	-5
157	7	17	56	-14
157	21	18	9	-6
158	14	17	-20	-9
157	7	21	-7	-13
158	5	13	24	-11
157	-2	12	34	-12
158	3	22	6	-21
158	5	22	21	-19
158	1	20	11	-11
157	5	17	6	0
158	1	14	-9	3
157	4	21	-8	2
158	1	19	3	9
157	1	22	-3	6
158	3	23	5	13
158	3	18	-8	11
158	4	19	3	5
157	1	24	-4	1
158	5	22	-19	-5
158	7	19	-9	-4
158	7	21	-3	2
158	3	18	-20	9
157	4	17	-19	11
158	5	18	10	11
157	11	17	-8	10
158	10	17	-21	19
158	9	17	-4	19
157	11	15	-7	14
158	13	17	-7	15
158	8	16	13	12
157	3	16	41	14
157	7	17	58	16
158	9	19	46	10
157	13	17	32	0
157	3	14	10	-16
157	-1	18	4	-28
157	-3	13	-10	-26
157	-6	11	-13	-33
158	2	17	20	-27
158	6	19	26	-16
157	4	18	9	-8
157	3	18	-17	3
157	4	17	-5	4
157	5	21	54	-1
158	4	15	20	-4
158	3	13	-74	9
157	6	18	-36	9
157	5	17	17	3
158	4	17	-5	4
157	-4	20	7	6
157	-20	19	8	9
158	-14	19	6	11
157	7	23	12	15
158	13	19	5	15
158	18	13	10	6
158	17	18	8	-11
158	15	21	24	-15
158	3	20	23	-6
157	-9	25	23	0
158	-1	19	39	15
157	5	25	42	20
157	12	27	42	23
157	9	14	43	28
158	6	13	49	14
158	15	11	19	2
157	26	19	-60	4
157	31	23	-73	3
158	23	9	-40	-9
157	16	18	-36	-12
158	14	28	-2	-17
158	11	25	13	-16
158	5	29	37	-13
158	-1	22	31	-3
158	3	10	-6	3
158	-3	14	3	-8
158	-5	21	5	-9
158	-4	17	-12	0
158	-5	17	-20	12
158	0	19	7	14
157	-2	22	-11	13
157	-2	22	3	16
157	1	16	42	19
158	1	18	32	10
157	0	18	39	-7
158	-1	22	24	-5
158	-1	17	8	-6
157	-1	15	-26	-17
158	0	19	-71	-16
158	-3	18	-36	-9
158	0	14	54	-1
158	5	15	52	3
158	17	19	10	3
157	14	15	48	-1
157	5	21	29	1
158	8	22	61	4
158	8	24	78	8
157	7	21	44	4
158	3	13	16	-10
158	0	8	-39	-5
157	5	13	-33	6
158	3	14	-29	4
157	1	11	-27	4
158	4	16	-43	11
157	8	16	-31	6
159	7	15	6	-2
157	3	14	32	-4
158	8	20	40	-12
157	7	20	30	-7
159	6	21	15	0
157	5	22	5	1
157	3	19	32	0
157	1	17	40	4
158	5	18	17	6
158	4	25	-4	2
158	6	24	1	10
157	13	31	27	15
157	12	28	57	11
157	10	18	3	14
158	9	16	-105	19
158	9	16	-82	11
157	2	7	-9	9
158	-1	3	-27	3
157	3	15	-64	-3
157	6	16	-9	-8
157	6	17	62	-12
158	4	19	61	-11
157	7	25	62	-13
157	5	22	46	-10
158	3	19	19	-7
157	1	21	49	4
158	4	22	40	6
158	5	21	15	10
158	4	18	12	10
157	5	15	-7	3
158	4	14	-7	-1
157	5	21	-7	1
157	11	23	4	7
158	11	24	7	9
157	10	22	-2	13
157	6	14	-9	10
157	7	16	-18	7
158	5	10	-19	13
157	11	11	-16	11
157	13	17	15	3
157	5	15	8	0
157	-1	16	-6	-7
158	-4	17	4	-21
157	-5	21	-10	-34
157	-4	22	9	-31
157	-11	23	39	-5
158	-17	21	29	0
158	1	18	2	7
157	12	18	4	16
158	18	17	9	8
157	20	18	22	10
158	22	19	41	0
157	25	21	33	-2
158	19	16	15	-6
158	9	10	5	-10
157	5	18	8	-2
158	5	15	-10	8
157	3	14	-18	15
158	3	16	8	15
157	1	12	21	11
158	0	15	22	14
157	3	15	-21	15
158	4	19	-66	6
158	1	21	-24	-1
158	-1	18	-6	-1
158	-2	17	-11	4
158	-3	20	17	1
158	-4	22	2	-4
157	-2	22	-6	-10
158	3	22	-27	-8
157	16	23	-22	-6
157	17	22	2	-2
158	8	19	8	4
157	8	19	55	1
157	5	21	74	0
159	2	12	62	-1
158	0	5	47	-5
158	-3	7	49	-27
157	-14	18	36	-36
157	-20	23	-3	-17
158	-1	20	2	-4
158	5	21	16	2
158	11	19	17	4
157	15	22	48	11
157	14	21	23	8
158	19	23	-16	10
158	26	27	10	11
157	25	22	1	13
158	21	22	-14	13
157	21	17	-37	15
157	16	18	-56	14
157	15	23	-33	14
158	5	22	-22	14
158	0	22	-14	16
158	0	19	-10	19
157	-6	17	9	15
157	-2	15	46	14
157	-3	15	73	2
158	-4	13	63	-7
159	-3	10	-10	-12
157	-3	11	-46	-6
157	-3	21	9	-4
158	0	21	12	-5
157	0	16	2	-3
158	-1	15	24	-5
158	0	23	15	5
157	5	22	41	7
157	5	15	13	4
157	4	17	10	0
157	5	24	32	-7
158	4	26	-2	1
158	0	19	-2	-4
157	-1	20	-29	-5
157	1	17	1	0
157	1	18	43	-3
157	5	21	-4	-4
158	9	19	9	2
157	5	18	35	-7
158	5	15	8	-11
157	9	15	-41	-2
158	9	19	-72	-9
157	7	19	-53	-4
157	7	18	-28	-2
158	7	20	-1	-1
158	5	21	16	9
158	3	18	32	4
158	4	15	23	2
157	5	17	19	2
157	3	13	23	7
157	6	13	-7	11
158	7	17	-22	9
157	4	16	-16	9
157	1	18	-9	10
158	1	17	-4	9
157	9	17	18	7
157	6	15	43	4
157	7	16	70	0
157	7	18	72	2
157	14	21	40	4
157	33	17	48	1
157	27	16	57	-1
158	13	19	38	-4
158	-6	21	41	-18
157	-14	21	-5	-11
157	-1	19	-74	16
158	5	15	-36	10
157	-1	17	5	3
157	0	20	-7	8
158	5	18	9	7
157	5	19	-1	13
158	1	17	4	19
158	3	23	24	20
157	8	28	20	24
158	5	18	0	16
158	5	14	-24	5
158	5	15	-18	-6
157	5	15	-10	-24
158	4	19	-3	-26
158	5	17	13	-14
158	3	17	20	-9
157	2	18	25	-22
158	1	15	26	-26
158	8	22	14	-28
157	7	23	8	-33
158	3	18	8	-42
157	3	15	1	-38
158	-7	8	-2	-7
158	-17	16	23	2
157	-11	19	25	4
158	7	19	-10	14
157	15	18	-9	16
159	21	18	0	16
158	19	21	-11	15
158	21	17	0	25
157	19	22	27	27
158	11	22	27	23
158	7	15	-37	30
158	4	17	-83	33
157	5	17	6	19
157	3	19	20	15
158	2	23	-3	-1
158	3	24	30	-12
158	-1	18	29	-2
158	-5	14	49	-7
158	0	21	32	3
157	1	17	21	4
157	2	14	15	3
158	3	17	7	9
158	1	15	11	9
157	-11	16	13	8
158	-28	19	1	7
158	-17	19	-13	1
158	-3	17	-3	-7
158	3	15	-25	-2
158	8	22	-14	-6
157	19	24	-9	6
158	32	23	21	12
158	27	21	64	9
157	23	19	34	9
157	30	15	4	0
157	24	17	13	-6
157	20	22	19	-2
158	17	22	19	0
157	10	23	23	-6
158	4	21	-7	0
158	3	11	-32	1
158	1	5	-10	10
158	0	9	27	4
157	1	15	31	-3
157	-1	16	26	-2
158	2	19	35	-14
157	1	18	3	-18
157	2	23	-63	-8
157	3	21	-26	-8
157	0	14	-2	-3
159	1	22	-11	2
158	3	21	24	2
158	3	19	0	5
158	3	19	3	4
157	4	24	9	7
157	3	22	-10	4
158	6	20	-2	4
158	5	22	19	-5
157	3	23	16	-7
158	3	9	-16	2
157	1	2	-15	-3
158	5	20	15	-6
157	5	22	26	6
158	3	15	17	6
158	2	18	16	-4
158	5	22	12	-9
157	5	18	19	-4
158	0	16	16	4
158	2	19	3	6
158	2	21	-7	11
158	4	19	-10	13
157	9	17	5	17
158	12	19	-3	7
158	12	22	-23	8
158	9	23	-3	13
157	7	21	13	11
157	4	17	9	7
157	5	15	31	-2
157	3	14	21	-1
158	5	18	6	0
157	8	22	19	-1
157	7	21	60	-1
157	2	16	74	3
158	1	13	-16	3
158	4	15	-41	2
158	1	15	19	-2
158	2	11	10	-8
158	7	13	16	-8
158	7	17	24	-19
157	10	19	21	-29
158	15	16	33	-31
158	19	19	-5	-10
158	11	18	-18	4
157	5	16	-36	6
158	-5	15	8	-2
157	-11	13	46	-7
158	-1	18	-1	-2
157	1	19	11	-3
157	-1	20	3	-4
157	0	17	-25	7
158	4	19	-29	-5
158	4	26	-12	-6
158	4	22	-1	8
158	3	18	14	9
158	4	21	20	15
157	5	23	-3	18
157	5	24	29	20
158	4	15	60	23
157	4	10	12	18
158	5	15	-19	0
158	3	24	-2	-14
158	5	20	37	-7
158	8	15	104	2
158	8	19	49	7
157	5	17	1	7
158	3	15	16	8
157	9	19	-8	4
158	9	14	17	2
158	7	17	-5	5
157	10	20	-31	11
158	7	16	-32	16
157	7	12	-41	14
157	0	19	-51	4
158	-1	19	-51	11
158	1	15	-26	11
157	-2	18	-2	-4
158	3	24	26	-2
157	10	20	10	-2
158	0	14	25	-4
157	-15	21	35	-5
157	-2	24	68	-5
157	13	23	107	-5
158	18	22	9	0
158	23	20	-8	-2
157	17	19	69	-7
158	19	16	41	-1
157	16	19	-12	0
158	8	19	-22	-3
157	5	20	-18	-2
158	3	21	-5	0
158	4	19	18	0
158	4	14	-24	2
157	7	17	-93	9
157	5	20	-42	11
157	2	16	8	18
157	4	19	3	21
158	7	18	38	22
158	0	18	27	21
158	0	18	29	16
157	1	16	40	0
157	3	22	33	-14
158	8	28	47	-27
158	7	29	33	-29
157	1	12	-19	-21
158	1	6	-106	-25
158	-3	21	-58	-30
158	-23	22	-3	-21
157	-25	20	-48	-9
158	-6	24	16	-4
158	-1	11	43	-7
158	9	12	39	-8
158	15	22	64	-5
158	13	19	18	1
157	20	18	30	12
158	22	9	49	12
158	22	10	30	-7
158	20	17	9	-35
159	15	21	-34	-30
158	12	22	-43	-12
157	12	18	-24	-4
158	3	17	-3	13
157	2	17	5	15
157	3	20	16	9
158	0	21	27	12
158	0	17	2	8
158	-6	10	1	10
157	-1	16	20	19
157	5	19	4	25
158	3	18	13	28
158	3	19	7	27
157	9	15	-6	24
158	6	17	9	18
158	3	19	9	14
157	4	19	12	14
157	3	22	-7	13
158	3	21	-10	10
157	5	18	1	10
158	4	17	37	11
158	3	12	46	10
158	2	13	-27	10
157	3	18	-28	4
157	3	17	5	-7
157	3	18	20	-5
158	1	18	45	-5
158	3	21	36	-7
158	5	22	33	-5
157	6	18	41	-3
157	7	19	40	2
158	2	17	16	0
158	4	15	-1	-1
159	3	19	6	-4
157	7	22	10	-8
158	5	17	11	-6
157	6	17	-16	-2
158	9	18	-16	2
157	7	19	2	-1
157	9	19	-22	-2
157	14	17	-19	0
158	18	15	-4	-1
158	6	17	-9	-1
157	-1	18	14	1
157	-5	17	13	7
158	-9	17	0	6
158	-2	17	29	-4
158	12	19	32	0
158	19	21	-11	0
157	4	19	8	-4
158	0	18	-37	-4
158	5	19	-93	4
158	4	19	-15	0
158	3	15	70	-7
157	7	16	75	-4
158	8	16	5	-3
157	7	17	13	6
158	5	17	36	6
157	4	17	14	4
157	3	16	14	-1
158	3	22	-10	-2
158	5	19	-1	2
157	4	17	8	0
158	2	28	34	3
158	4	25	59	6
157	4	11	8	3
157	5	11	-71	-5
157	8	24	-47	-14
158	4	23	24	-13
158	7	26	12	-2
158	9	23	-19	4
157	7	15	-53	10
158	10	19	-43	14
158	5	15	15	15
157	5	22	23	19
157	4	24	-6	22
158	0	19	1	22
158	1	18	16	3
157	-3	12	40	-7
157	1	9	65	4
158	4	9	68	0
157	5	13	65	-7
158	5	18	37	-2
157	6	14	2	-6
157	6	14	-42	-11
158	3	17	-32	-21
157	7	19	7	-30
157	5	22	9	-39
157	10	21	-7	-42
157	10	18	-8	-41
157	7	19	-13	-28
159	8	19	0	8
157	7	15	29	18
157	6	12	-1	20
158	6	19	1	13
158	5	26	41	7
157	0	22	122	25
157	4	18	174	23
157	5	19	42	22
158	5	16	-38	15
158	10	22	-22	-8
158	9	24	-31	-15
158	3	17	-15	-2
158	4	21	-50	6
158	7	19	-46	10
159	3	18	-17	18
158	6	19	-15	14
158	6	18	24	17
157	5	19	40	16
157	5	21	34	13
158	6	21	-18	12
158	5	17	-13	9
158	6	21	12	10
157	6	24	-29	9
158	4	23	-13	7
157	0	19	20	-4
158	-1	17	20	3
158	1	19	23	8
157	1	19	9	-1
158	2	16	-15	0
157	1	9	-28	0
158	0	16	11	-11
158	-4	19	11	-9
157	-1	18	-74	1
158	2	22	-50	7
158	5	18	23	3
157	11	19	8	-4
158	14	22	9	5
157	13	17	0	2
157	13	17	-11	0
158	8	15	-9	1
157	6	17	-27	-4
158	7	22	30	-8
157	2	29	139	-10
158	-9	31	151	4
159	-17	14	30	18
158	0	-2	-52	10
158	8	2	-9	-2
158	15	14	12	-14
158	19	18	1	-10
158	22	22	13	-9
158	23	24	0	-3
158	14	22	-10	0
158	8	23	-17	-3
158	5	21	2	6
158	14	22	2	-3
158	21	23	-10	-3
158	8	13	6	-5
158	2	17	3	-6
158	4	20	5	-1
157	3	18	10	-1
157	3	20	12	0
158	12	17	12	0
158	10	17	19	4
157	1	19	5	10
157	-14	20	1	11
158	-34	17	29	8
158	-34	13	24	6
159	-10	13	12	2
158	2	14	15	-1
158	4	15	21	1
158	5	17	12	5
158	8	17	-7	4
158	17	16	-13	10
158	26	15	-16	13
157	25	21	-16	11
158	21	20	-8	11
157	14	17	4	2
158	12	22	29	3
158	12	17	46	8
157	5	17	54	9
157	7	15	40	11
158	6	17	17	8
158	0	18	45	1
158	1	15	53	-8
157	3	16	25	-22
158	4	17	-20	-21
158	5	20	-52	-13
158	5	17	-16	-18
157	0	19	-9	-24
158	-1	21	-6	-20
158	-1	16	-10	-14
158	0	15	-31	-11
157	1	17	-13	-10
157	3	21	-16	2
158	3	23	-22	14
157	1	21	-21	13
158	-1	19	-7	21
158	3	17	25	25
158	11	18	26	28
157	8	18	5	20
158	7	18	14	-1
157	10	22	39	-23
158	3	18	35	-37
158	4	15	6	-29
158	3	13	16	-21
158	3	12	34	-9
157	2	18	24	0
157	3	21	34	2
157	2	18	14	4
157	3	17	-10	10
157	4	19	-21	12
157	3	21	-12	15
157	3	22	-7	15
158	5	21	-55	14
158	5	12	-20	23
158	3	10	24	28
158	5	15	7	20
158	5	24	16	4
157	9	24	20	3
157	9	17	28	-3
157	9	22	74	-7
158	5	27	53	7
158	5	15	-51	8
157	6	15	-66	1
157	2	12	15	0
158	5	9	16	0
158	5	19	-6	-4
158	3	21	43	1
158	4	21	61	0
157	3	19	30	1
158	3	17	-60	3
158	5	20	-58	4
158	8	19	39	13
158	8	15	66	-1
158	7	14	37	-2
158	8	14	-45	4
158	7	16	-19	-4
158	1	12	20	2
157	3	16	-12	0
158	0	22	6	-5
157	-3	24	-23	-4
158	0	24	-12	0
158	-4	22	2	4
157	-1	25	8	0
158	14	21	27	0
157	20	22	27	1
158	10	18	42	2
157	12	21	37	1
157	13	25	31	4
158	5	17	24	10
158	8	18	14	4
157	8	19	10	5
158	7	21	6	-1
158	5	21	-11	1
158	5	17	-24	6
158	6	12	-20	4
158	4	14	-4	8
157	4	6	-4	3
158	3	16	-16	-10
158	5	23	-7	-13
157	3	13	1	-11
158	7	19	6	-4
158	4	19	15	0
158	3	18	38	-4
157	7	15	43	1
157	7	15	26	2
157	7	18	8	14
157	5	16	15	22
158	4	17	48	20
158	4	15	56	26
158	3	15	27	21
158	4	13	-7	5
158	0	18	16	-14
158	-2	18	19	-30
158	-3	19	-17	-35
157	3	26	-33	-28
158	7	23	-36	-32
158	3	17	6	-29
157	2	18	18	-17
158	0	19	0	-9
157	3	19	10	4
158	4	19	13	16
158	2	15	3	19
158	4	16	-22	26
158	3	15	-65	16
157	3	15	-69	-1
159	3	19	-9	-9
158	5	26	42	-9
158	8	26	40	0
157	6	25	4	12
157	8	21	51	23
158	6	24	89	18
158	3	21	41	5
158	5	14	-14	-13
157	5	17	-5	-32
158	8	17	37	-9
157	9	18	11	2
157	9	28	32	-1
157	8	22	34	13
158	8	15	-48	8
158	9	14	-94	6
157	9	14	-48	12
158	8	20	-37	11
157	7	19	-10	4
158	8	18	30	2
157	7	22	20	7
158	3	16	6	13
157	3	12	-59	21
158	4	14	-10	13
158	5	14	43	10
157	5	17	29	7
158	5	17	17	4
157	5	16	12	6
158	4	19	36	3
158	1	19	59	-1
157	2	16	72	-8
157	3	13	50	-2
157	4	19	8	-2
157	7	25	6	-10
158	5	20	25	-6
158	3	18	-5	9
158	1	14	-1	3
158	5	22	1	-7
157	8	21	4	-5
158	4	18	13	-6
158	7	22	-3	0
158	3	17	-10	7
158	4	20	-12	8
158	8	18	-3	10
157	6	19	-15	7
158	7	15	-3	2
158	10	12	5	-6
158	14	14	4	-12
157	5	15	10	-9
158	0	17	9	-1
158	-4	18	22	-2
158	-4	16	13	-6
157	1	11	-7	-5
159	10	15	-27	-3
157	5	18	-14	4
158	2	15	19	4
158	4	18	30	3
157	8	22	21	2
158	7	19	2	7
157	5	23	3	8
158	11	22	22	8
158	8	19	26	8
158	5	18	16	2
158	7	20	13	-1
158	9	24	7	7
158	7	17	15	10
158	7	17	23	4
157	3	16	18	4
157	8	14	3	4
158	7	18	-13	-4
157	6	19	5	-9
158	7	19	4	-15
158	3	21	-10	-20
158	2	19	8	-21
158	1	16	14	-8
158	4	19	19	2
158	7	14	31	2
158	2	13	32	4
157	2	15	-2	3
158	1	18	-42	-1
158	3	21	-47	4
157	7	19	-40	15
158	3	16	-20	18
158	1	15	25	23
157	0	17	34	15
157	1	19	28	9
157	5	24	52	9
157	8	23	56	5
158	8	21	56	6
157	8	13	14	4
158	5	6	-27	3
159	7	19	-10	-4
157	11	16	0	-21
158	8	16	-12	-32
158	10	23	-2	-41
157	10	18	-7	-48
158	5	19	-16	-27
158	7	15	-9	-8
157	2	10	-32	-5
158	0	17	-20	-2
158	1	25	0	4
158	0	20	4	13
157	4	20	21	13
157	1	23	50	15
157	7	23	54	19
157	20	28	2	20
158	14	21	4	21
158	2	20	23	22
157	5	20	23	15
158	0	17	45	11
157	-1	15	39	12
158	7	15	-2	13
158	6	13	-63	12
157	8	17	-43	13
159	8	18	28	11
157	4	13	20	8
158	0	19	21	6
158	0	17	38	5
157	3	22	47	13
157	3	18	49	13
157	10	11	-25	11
158	13	18	-77	2
158	5	23	-49	-2
158	1	14	-21	6
157	5	12	4	5
158	4	17	20	1
158	4	19	23	-5
158	8	25	24	-10
158	6	22	44	-6
157	1	19	29	-6
158	1	20	-30	6
157	5	24	17	2
157	1	21	45	-6
157	0	19	6	-5
158	5	21	31	-7
158	4	17	0	-8
158	4	19	-43	-7
157	5	19	-23	-2
158	5	20	-3	4
158	6	19	-2	3
157	3	18	-7	2
158	7	16	-4	-2
158	5	16	9	-8
158	4	18	19	-14
158	5	19	21	-6
157	3	16	31	10
157	5	14	29	11
158	8	23	26	7
158	7	20	25	3
158	4	23	-20	2
158	4	23	-21	-2
157	4	17	43	-1
158	7	17	31	-12
157	5	11	-7	-15
157	7	15	-8	2
157	3	14	-8	7
158	4	17	0	0
157	11	19	10	-2
157	11	19	33	-4
157	3	18	47	-4
158	0	17	30	-7
158	-4	20	23	-8
158	-6	23	27	-2
158	4	24	29	6
158	8	19	20	7
157	3	13	-22	10
157	4	13	-53	2
158	5	19	-38	-4
158	2	21	-35	7
157	4	21	-32	9
157	7	20	-14	12
158	3	19	-9	14
158	5	19	-1	14
158	4	17	1	7
157	3	16	12	-8
158	4	16	28	-12
157	7	19	31	-7
157	10	19	29	-5
157	9	14	46	-4
157	8	13	37	2
158	8	13	0	-3
158	10	19	-21	-7
158	8	19	-28	-9
157	7	15	-6	-8
158	6	16	4	7
158	4	15	-11	4
158	10	15	-1	-1
157	11	15	14	-5
158	4	18	45	3
157	7	21	51	15
158	8	17	2	19
157	1	19	-43	25
157	0	20	7	11
157	-5	17	45	8
158	-5	19	20	-2
157	12	22	38	-16
157	28	24	27	-11
158	24	21	38	-7
157	11	18	58	-4
158	10	22	46	-3
157	9	22	48	-4
158	4	17	10	-7
158	0	9	-43	-6
158	4	15	-68	-3
158	4	17	-42	9
158	0	11	-53	27
158	1	15	-11	16
157	1	24	59	8
158	3	23	21	13
157	3	19	28	7
158	1	19	27	10
158	1	17	51	13
158	1	17	53	9
158	1	15	-73	9
157	3	17	-124	-5
157	6	20	-49	-14
158	4	23	-12	-18
158	2	23	20	-19
158	1	22	62	-21
158	1	22	27	-19
157	1	20	18	-4
157	0	24	26	-1
157	1	20	28	3
157	1	23	24	2
157	3	23	16	0
158	-2	8	6	6
158	0	8	-17	-2
157	5	11	-14	5
158	3	11	-32	8
158	4	15	-24	4
158	7	18	12	1
157	5	24	24	0
158	5	24	35	10
158	8	19	60	7
157	7	17	36	4
158	5	17	-11	5
157	8	19	-24	8
158	5	19	-35	4
158	5	17	-10	3
157	7	19	-8	6
157	7	21	8	4
158	5	22	32	1
159	7	17	-2	-1
158	4	12	-12	6
158	7	15	-1	12
157	5	15	31	12
157	4	12	47	10
158	7	15	21	13
158	7	18	6	13
157	8	17	18	11
157	9	17	22	7
158	9	17	24	2
158	8	17	37	-5
158	7	14	30	-7
157	5	17	25	-8
158	3	20	21	-13
157	1	17	13	-17
157	4	16	-3	-16
158	2	19	-11	-10
158	3	18	-9	-5
157	8	17	-2	-6
157	7	19	3	-7
157	7	21	8	1
157	5	23	40	8
157	3	22	64	9
158	2	15	15	6
158	3	12	-79	14
157	7	19	-56	7
158	8	19	-12	0
158	5	17	-35	2
158	3	17	-42	-1
158	1	16	-38	-2
158	3	21	-5	2
158	2	17	-1	3
158	3	17	16	4
158	8	18	45	11
157	13	19	29	9
158	15	21	17	1
157	16	22	9	4
158	9	21	34	3
158	1	17	35	-2
157	-2	18	10	0
158	1	19	5	-1
158	5	21	13	-6
157	2	22	37	-3
158	1	27	60	-2
158	3	28	57	1
157	1	15	5	12
158	3	10	-22	19
158	1	11	-1	20
158	3	15	-13	7
157	5	19	-23	-5
159	4	12	-15	-3
158	6	14	-11	-6
158	8	23	20	-17
157	3	16	49	-21
157	2	16	41	-11
157	2	21	8	-13
158	3	22	3	-7
157	2	22	31	-4
157	4	19	35	-8
157	5	15	14	0
158	4	17	-37	8
157	1	18	-10	9
158	-1	13	22	3
157	-1	19	15	5
158	0	24	54	1
157	-4	24	-8	7
158	-14	25	-19	7
157	-17	19	6	9
157	8	14	-65	19
157	17	16	-40	11
157	12	21	-12	11
157	14	15	-20	18
158	15	18	-11	-2
157	22	26	11	-23
158	29	26	19	-25
158	32	15	-39	-15
158	28	6	-61	-2
158	24	14	-24	-1
158	17	19	-12	12
158	14	16	-10	17
158	9	17	10	8
157	-1	17	49	9
157	-1	17	71	3
158	-4	17	47	-2
159	-2	19	28	-8
157	2	19	37	-10
158	-1	18	39	-22
158	-3	18	18	-24
158	-5	18	4	-4
157	-3	18	18	3
158	-1	14	52	4
157	-3	17	92	6
157	-2	18	63	9
158	0	17	10	7
157	0	22	-17	9
158	2	22	-37	16
157	3	19	15	14
157	3	18	13	5
158	3	14	-87	8
157	4	20	-56	7
159	0	18	41	7
158	3	13	27	13
157	2	17	35	2
158	0	18	53	2
159	8	27	9	-1
158	9	26	-30	1
158	8	19	-50	15
158	3	15	-18	11
158	4	19	14	5
157	2	18	23	-9
157	0	15	13	-11
158	3	19	0	0
157	4	17	20	-5
158	4	24	6	-9
157	3	16	1	-10
158	3	19	-7	-10
158	6	22	-6	-11
158	8	18	0	-6
159	7	23	-11	1
157	4	19	8	2
157	5	19	35	4
157	7	21	67	9
158	6	17	51	13
157	6	18	5	7
158	9	21	-8	-1
158	8	18	-10	4
157	8	18	-11	1
157	5	19	-5	-6
157	2	14	5	-1
157	5	18	15	7
157	6	21	27	14
158	3	14	36	24
158	0	12	17	21
157	3	14	-40	19
158	6	17	-18	8
158	4	14	27	-4
157	7	17	-26	-5
158	5	19	-35	-8
158	5	23	7	-16
157	8	22	30	-17
158	6	18	25	-11
158	4	19	29	-12
157	4	21	33	-9
158	5	21	7	-10
158	4	13	-14	-5
157	12	17	-13	-1
158	14	22	8	0
158	9	13	15	6
158	5	15	10	4
157	5	22	3	7
158	7	18	9	11
158	4	17	21	14
158	4	19	8	16
157	6	17	9	15
158	3	17	0	7
158	3	16	10	7
158	1	14	39	5
158	8	15	30	2
157	13	10	-25	-3
158	5	15	-93	-8
158	-12	15	-48	-12
157	-31	14	22	-16
157	-27	15	19	-6
158	-6	14	27	-5
157	13	20	-6	0
158	19	26	8	0
158	22	28	36	2
158	37	29	20	11
157	30	19	27	20
158	16	8	-35	18
158	12	9	-56	7
157	5	9	-21	7
157	0	13	23	3
158	-3	11	40	10
158	3	13	8	19
158	4	18	-16	3
157	8	31	16	3
158	6	23	55	4
158	3	17	62	-11
157	5	19	61	-20
158	3	21	48	-25
157	3	24	80	-18
158	7	18	43	4
158	8	17	-23	3
157	5	17	25	-8
158	1	15	18	-1
159	1	17	-18	12
158	3	20	12	8
158	4	22	-9	0
158	5	21	-5	-5
158	1	17	-18	0
158	5	19	-71	8
158	4	20	-39	6
158	4	23	-13	2
157	5	26	2	2
159	3	25	14	-6
158	4	19	-5	-11
158	5	15	-27	-7
158	3	17	-36	-6
158	2	17	-15	0
158	4	19	12	8
158	5	25	13	6
158	6	21	-23	2
159	5	17	-5	5
158	5	18	91	9
158	9	15	88	9
157	7	19	40	15
157	8	20	40	13
157	7	22	38	6
158	8	25	28	7
158	11	19	-11	2
158	8	17	-27	-4
158	3	13	-21	-5
158	3	11	-12	-9
157	7	15	-21	0
157	8	15	-30	5
158	7	18	-1	0
158	5	19	1	-4
158	5	18	5	-5
157	4	15	-1	-7
157	5	17	-4	-9
158	5	9	21	-11
158	1	9	45	-10
159	3	15	51	0
157	4	15	-13	7
157	8	21	-21	10
157	5	16	29	8
157	2	12	14	17
157	3	14	-1	17
157	2	15	-15	13
158	5	19	-26	17
158	4	22	14	17
157	4	24	33	16
158	5	25	48	31
158	7	17	23	36
157	5	12	-23	20
158	6	17	18	11
158	5	17	43	-13
158	3	23	32	-23
158	4	22	13	-32
158	5	22	-34	-45
158	7	23	-13	-54
158	3	17	19	-49
158	2	20	4	-14
158	4	20	3	-8
158	4	21	-3	-1
157	4	20	3	7
157	3	20	17	13
158	5	18	18	18
158	4	21	32	13
158	7	21	31	15
158	7	19	20	13
157	5	17	23	10
158	5	17	33	12
158	8	16	17	20
158	6	13	-1	16
158	6	15	-8	3
157	7	22	-30	4
158	7	17	-39	12
157	5	14	-37	16
158	7	21	-49	16
158	6	19	-54	5
158	5	18	-28	2
157	5	21	-26	-3
158	4	17	-2	-10
158	3	19	43	-10
157	7	23	103	-10
157	3	24	163	-14
158	-1	12	56	-17
157	5	15	-79	-14
158	2	14	-49	-2
157	-1	17	-3	-5
158	-1	20	18	-3
158	1	15	52	1
158	7	17	38	4
158	12	16	45	4
158	7	17	67	0
157	5	19	15	1
157	10	17	-2	3
157	7	14	45	6
158	3	15	0	2
158	1	16	-26	6
158	4	17	-16	8
159	1	16	-12	4
158	-3	15	13	3
158	-1	21	-3	5
158	-1	23	-1	9
158	-1	17	9	3
158	10	23	22	-9
158	26	26	24	-12
158	22	21	2	-13
157	14	21	-27	-9
158	11	19	-11	1
157	6	18	-5	9
157	5	11	-42	19
158	4	9	-23	7
157	3	15	-21	2
158	3	18	-21	11
158	4	19	-8	7
158	5	20	-2	13
158	2	17	2	10
158	0	17	-10	4
158	2	22	5	9
157	4	18	14	10
157	5	22	14	9
157	6	24	10	2
158	5	25	10	0
157	3	25	23	2
157	4	21	34	-6
159	8	22	40	-14
158	9	15	13	-32
158	10	17	-54	-32
158	10	21	-15	-13
158	-1	17	74	-9
157	-7	16	41	-3
158	-7	18	25	-1
158	3	22	20	-5
158	11	17	13	3
157	11	17	10	2
157	5	24	22	-1
158	3	17	37	2
157	2	9	-14	14
157	4	14	-40	10
157	6	22	-8	-3
158	5	17	4	10
158	5	17	-34	10
158	5	24	-18	8
158	5	22	13	14
158	2	25	53	9
158	0	13	61	11
158	3	9	-47	9
158	8	22	-88	-2
157	7	26	7	-12
157	2	16	31	0
158	2	19	25	-4
158	1	15	40	-3
158	5	10	-11	0
158	2	11	-21	-2
158	7	15	-7	10
157	10	20	4	7
157	4	18	-1	11
158	6	17	18	15
157	8	12	42	7
157	8	19	32	6
158	8	17	30	3
157	3	12	25	-6
157	1	14	23	-1
157	4	21	6	-3
157	3	26	-8	-6
157	3	20	5	-1
158	0	17	23	-8
158	0	16	4	-4
158	5	20	10	-7
158	8	22	51	-8
158	3	24	29	1
157	-10	17	-8	11
158	-20	15	-4	17
157	-9	22	15	15
158	1	18	32	17
157	9	15	45	11
157	13	17	24	-3
158	13	19	-15	-3
158	18	19	-2	12
158	23	18	32	3
158	28	22	21	-2
157	24	23	14	2
158	23	23	-12	-5
157	18	23	-38	-4
157	16	21	-21	-11
158	15	19	-19	-4
158	3	16	-5	-2
158	3	18	9	2
157	1	17	23	10
158	1	24	33	7
157	3	24	29	3
158	0	11	1	-10
157	0	11	-91	-24
158	2	21	-94	-31
158	-1	21	-1	-19
157	-3	15	29	1
158	-1	18	27	4
158	-3	17	9	7
158	5	19	27	3
157	1	20	42	-3
158	1	22	29	-1
158	3	23	42	4
157	1	23	16	10
158	4	17	1	9
159	3	12	-23	2
157	4	17	-12	-6
158	1	18	23	3
158	4	16	22	9
157	1	14	11	13
157	-3	8	-18	22
158	-4	14	-15	4
157	-3	22	-8	-4
157	0	17	-1	2
157	-2	15	8	7
157	6	21	8	1
157	22	17	13	-8
158	22	22	2	-11
158	10	25	7	-4
158	9	20	21	-6
158	7	18	32	-12
157	5	17	22	0
158	7	17	32	6
158	7	19	65	8
158	10	23	33	6
158	5	16	-25	7
158	4	9	-80	16
158	1	6	-10	3
158	1	15	23	7
158	8	17	-12	12
158	5	15	25	20
157	5	21	1	23
158	2	19	6	19
158	-2	15	-22	9
158	1	16	-27	-8
157	4	17	37	-10
158	4	16	67	-5
158	2	18	41	7
158	6	25	12	-3
158	8	24	18	-2
158	4	16	-26	-1
157	0	12	-29	-15
158	0	18	-5	-8
157	4	20	4	-11
157	5	17	1	-13
157	3	21	12	-13
157	10	19	21	-8
158	15	17	9	0
157	14	17	6	6
158	9	14	1	10
157	7	17	-6	4
158	2	22	-14	2
157	-3	19	-4	2
158	3	17	3	2
157	8	14	9	6
157	10	19	8	4
158	7	21	9	11
157	5	21	40	13
158	5	31	104	9
158	0	24	149	12
158	3	6	29	10
158	8	8	-113	13
157	9	23	-66	0
157	8	17	-4	-9
157	5	22	-6	-2
157	9	21	28	4
157	4	8	18	2
157	2	17	2	-6
157	5	21	-28	0
158	3	18	-38	-8
158	7	23	-1	-5
157	10	20	13	-1
158	6	18	21	-7
158	5	19	9	-2
157	8	15	8	-2
158	8	15	0	-5
157	4	15	-3	-2
158	4	17	-3	2
158	5	20	-10	1
157	3	21	-1	2
157	5	18	11	4
158	5	19	19	7
157	5	16	19	18
158	5	15	15	14
158	5	26	2	6
157	5	28	6	13
157	7	27	15	7
158	5	20	12	-3
158	7	13	-7	-2
158	4	11	10	2
158	-3	8	72	-5
158	3	16	48	-13
158	5	19	-31	-11
158	11	18	-68	-19
157	12	21	-11	-13
158	7	14	15	-6
158	5	14	8	-10
158	3	17	37	-12
158	4	16	37	-4
157	2	15	49	10
157	-1	18	36	14
158	1	17	44	13
158	3	17	21	7
158	4	19	-4	2
158	3	18	12	0
158	5	23	13	4
158	4	26	19	11
157	3	21	-3	9
157	3	15	-1	17
157	1	7	-9	31
158	0	7	-34	18
157	4	19	-36	4
158	2	19	-18	15
157	5	21	-6	8
158	6	24	-6	4
158	7	20	8	0
157	4	17	0	-8
158	2	19	4	-19
157	5	26	41	-29
157	7	25	56	-24
158	7	24	39	-17
158	8	21	8	-8
157	8	19	-5	-3
158	6	17	-6	7
158	6	17	-30	7
158	6	20	1	8
158	4	17	16	11
157	4	18	10	4
157	0	16	12	10
157	2	18	3	4
158	1	18	38	-6
158	0	19	24	-4
158	3	24	1	-1
157	11	22	-26	-2
157	19	21	-43	-11
158	11	21	17	-18
157	5	17	23	-8
158	9	18	-4	-2
157	4	19	0	3
158	5	20	0	6
157	4	20	8	8
157	7	23	7	13
158	4	19	13	11
157	5	19	12	14
157	5	25	16	11
158	5	24	10	14
158	10	21	-42	10
157	7	17	-64	0
158	5	17	-13	-1
158	3	13	13	1
157	8	6	4	3
157	11	9	44	4
157	12	9	45	5
158	1	13	29	0
157	-3	12	19	3
158	-7	8	21	-6
158	-5	14	30	-9
158	6	21	18	-5
157	10	17	23	2
157	6	16	2	4
157	6	18	6	7
157	3	14	6	8
157	3	15	4	-4
158	5	19	15	5
157	7	19	9	7
157	4	17	15	6
157	5	13	13	12
157	3	10	13	0
157	3	19	-22	-10
157	7	21	-50	2
158	7	19	-22	-4
158	9	24	-29	0
157	7	18	-20	6
158	5	20	23	2
158	7	25	43	4
158	7	28	62	1
157	6	23	72	-9
157	2	16	60	-5
158	4	15	-15	4
158	9	26	-16	-6
158	1	19	48	-5
157	0	7	47	-22
157	-1	12	5	-37
158	3	18	-55	-15
158	8	17	-33	-2
158	4	19	-8	0
158	7	16	-34	2
158	3	22	-22	-3
158	3	24	-2	4
158	3	19	4	10
158	3	22	19	6
158	2	18	24	2
158	4	18	18	-3
158	4	18	20	8
158	2	18	12	20
157	1	16	9	26
158	1	17	-6	31
158	1	17	0	29
157	3	21	14	17
157	6	21	-1	8
158	3	20	25	-3
158	4	18	81	-21
158	9	17	58	-21
158	8	21	-4	-18
158	7	20	6	-17
158	6	18	10	-13
157	1	19	-16	-10
158	1	17	-9	-4
158	5	17	-10	-7
158	4	16	-36	-7
158	5	19	-37	-5
158	3	17	3	9
158	-9	18	16	4
157	-24	23	5	3
158	-18	27	15	13
158	-3	26	42	10
157	8	24	46	12
158	21	21	42	12
158	20	16	30	13
157	14	10	10	5
157	16	13	10	-2
157	25	20	2	5
157	27	17	-32	10
157	23	16	-43	15
158	24	15	-35	18
157	27	18	-19	15
157	20	19	34	21
157	2	15	58	7
158	3	12	17	0
157	3	18	-28	-2
158	1	22	-4	-1
158	-8	13	-26	9
157	-21	14	-60	8
157	-18	21	-3	6
157	-6	19	10	0
158	5	14	14	-11
158	12	17	12	-13
158	19	18	4	-6
158	17	17	33	-8
158	16	16	40	-1
158	15	15	42	0
157	8	18	45	-5
157	8	23	35	-4
157	6	23	21	-4
158	3	21	11	3
158	0	19	15	2
157	-3	22	22	2
158	-1	24	17	-6
158	1	19	21	-7
157	0	18	9	4
157	1	21	10	1
158	1	24	15	-2
158	1	24	18	0
158	1	24	26	-1
158	0	13	-9	0
157	2	11	-80	7
158	8	18	-69	12
158	5	13	5	9
157	1	18	-32	9
157	6	16	-53	-1
157	-5	2	-15	-10
158	3	7	-1	-17
158	8	15	34	-13
158	3	9	51	-4
157	-2	15	69	-9
158	-6	19	65	-5
158	-7	21	26	0
157	1	25	2	7
157	15	22	1	10
157	15	24	-3	10
157	8	19	4	23
159	7	17	25	13
157	5	19	50	-4
159	7	17	19	0
158	9	17	-44	6
158	12	22	-14	-7
158	4	21	16	-13
159	3	19	-21	-5
158	2	21	-48	0
158	0	19	-38	1
158	3	18	-15	1
158	5	24	-17	4
158	11	23	6	10
158	7	17	39	23
157	5	14	48	19
158	8	15	61	4
158	7	20	60	-7
158	4	17	17	-12
158	5	18	-19	-8
158	7	18	-13	0
159	5	15	-12	1
157	7	15	5	0
157	9	18	15	5
157	8	21	42	8
158	7	21	47	10
158	7	25	10	11
157	3	22	2	7
157	3	19	7	-1
158	6	18	-8	-2
158	6	17	0	0
157	7	15	29	4
157	9	16	30	2
158	8	16	24	3
158	1	17	-2	3
158	0	17	16	-4
157	-1	17	28	3
158	3	18	15	-1
157	1	18	14	0
157	5	19	-1	-6
158	18	18	8	-12
157	18	14	7	-10
158	4	13	9	-14
159	1	11	1	-10
157	2	18	-61	-5
158	5	25	-80	-2
158	5	21	-29	-17
158	1	22	2	-8
158	5	21	23	-2
158	5	14	28	-4
158	5	12	1	2
157	5	11	3	4
158	7	18	1	1
158	3	20	10	12
158	1	15	4	19
157	1	18	-30	16
158	1	22	-25	16
157	3	19	-1	13
158	3	18	37	13
158	10	21	54	4
158	10	22	20	11
158	8	22	20	10
158	5	23	21	2
158	7	21	24	0
158	8	17	10	-8
157	7	17	-17	-2
158	5	15	0	3
158	5	21	0	-4
157	3	22	6	-4
158	1	14	1	4
157	5	11	-2	4
158	4	15	6	2
157	2	19	9	11
158	4	18	17	10
158	-6	13	25	6
157	-22	11	5	3
157	-9	19	-20	-7
158	0	24	8	1
157	4	22	51	0
157	14	22	80	-9
158	14	17	63	-5
158	16	16	-14	-6
157	26	21	-42	-2
158	29	23	24	3
157	24	23	5	4
157	20	25	-7	6
157	14	19	34	10
157	14	17	24	4
158	11	21	13	2
157	3	20	-54	1
158	3	22	-65	-1
158	0	22	-26	3
158	-1	20	-21	1
157	-1	20	-6	3
157	-3	22	3	2
157	-1	16	-5	-2
157	-1	19	17	0
158	-7	21	66	3
157	-17	14	60	-4
157	-17	13	10	7
157	-3	16	21	7
158	3	16	58	-1
158	5	14	38	10
158	9	16	21	7
158	11	15	16	6
157	23	24	25	-8
157	21	21	21	-12
158	11	15	-9	-8
158	8	11	-21	-14
158	1	11	-16	4
157	3	17	4	14
158	7	19	-4	5
159	4	15	-21	-7
158	0	17	-33	-18
158	1	18	-23	-16
157	3	14	-19	-13
158	2	18	0	-14
158	3	18	42	-4
157	0	21	14	2
157	0	22	23	4
158	2	17	12	9
157	6	14	-49	7
158	4	17	-32	8
158	1	16	-13	15
159	3	18	6	17
158	3	17	28	14
157	3	15	12	3
157	4	18	2	0
157	6	19	17	0
158	7	25	30	1
157	5	23	31	0
157	3	17	17	6
158	1	15	-13	14
157	2	18	-23	14
157	5	15	-24	10
157	7	16	-15	7
158	8	15	35	10
158	6	14	68	6
158	8	16	41	4
157	5	16	55	-3
158	5	19	83	-11
158	5	15	54	-11
158	2	20	-9	-4
158	5	30	-30	-7
158	8	32	29	-6
157	4	32	29	1
158	5	26	60	0
158	11	8	39	-3
157	12	5	-68	-24
157	10	26	-95	-26
157	8	25	-42	-7
158	8	14	-10	2
157	5	17	-20	2
157	10	19	4	-4
157	11	23	-4	4
157	8	18	6	12
157	5	18	9	9
158	3	20	5	11
158	2	21	-3	13
157	5	23	-14	12
157	2	18	1	17
158	1	18	-12	15
157	5	15	-4	10
158	4	23	6	5
158	4	21	46	0
158	1	19	47	3
157	7	16	37	1
158	4	15	36	-1
157	6	15	-2	-1
158	6	14	8	-8
158	4	11	9	-13
158	5	11	13	-7
158	3	17	22	-3
158	8	22	35	-2
158	8	26	30	0
158	9	21	-1	3
158	9	16	-16	7
158	3	11	-19	5
157	-1	11	-1	4
158	3	16	10	10
157	5	18	24	4
158	7	18	6	5
158	5	17	-9	-3
157	4	20	-12	-11
158	4	19	-10	-7
158	0	17	19	-3
158	3	19	35	4
158	1	20	38	2
158	2	19	1	4
158	1	16	-36	7
158	3	19	-19	3
157	2	17	-3	2
159	4	19	-16	2
157	5	24	-1	2
157	9	22	6	2
158	5	23	10	8
158	5	24	14	8
157	8	26	1	-1
158	5	22	-7	-1
158	6	13	0	8
157	4	11	21	-2
158	2	14	13	-5
158	3	11	0	-3
157	1	12	3	2
157	4	15	33	7
157	8	16	33	3
157	8	22	26	7
157	6	19	43	3
158	4	13	10	4
157	4	9	14	1
158	8	15	-3	2
158	7	13	-27	0
158	5	18	7	-4
158	3	18	-4	-2
157	4	21	-4	-7
159	-4	19	-4	-1
158	-21	13	-16	3
158	-18	23	-15	0
157	2	28	-11	-6
158	8	23	6	-10
158	14	24	36	-4
158	15	24	21	11
158	14	11	-25	11
158	22	13	-19	8
157	28	19	-6	6
158	29	24	-6	-3
157	23	22	45	-9
158	17	15	74	-7
157	13	19	33	3
158	13	20	43	3
158	7	21	36	7
157	1	22	4	15
157	4	19	-4	15
157	0	19	-16	19
158	2	15	8	12
157	9	14	12	12
157	9	13	9	10
157	1	18	-11	-1
157	-3	17	-14	-4
157	-10	14	-9	-12
157	-9	19	15	-22
158	-3	11	49	-30
158	-3	19	8	-27
159	-4	29	5	-13
158	-5	26	-3	-6
158	-6	24	-20	9
157	-2	18	-3	16
157	11	23	37	12
158	11	23	107	10
158	2	15	61	9
157	8	21	-87	17
157	10	26	-101	22
158	4	15	14	6
157	3	14	-11	-6
158	5	20	-12	-10
157	4	13	4	-8
158	3	15	-6	-14
158	2	11	27	-10
158	3	16	8	-8
158	-1	18	21	-2
157	6	18	3	15
158	9	16	16	18
157	9	14	20	17
158	11	15	16	-5
158	10	21	41	-8
157	9	16	25	-8
158	4	7	-17	-12
157	4	15	-53	-1
157	6	16	-15	3
157	4	18	0	10
158	5	20	-1	11
158	5	17	24	9
157	5	18	37	6
157	3	14	48	2
157	3	13	29	8
157	4	21	22	9
157	3	26	16	5
157	4	22	-1	3
158	4	24	-35	6
158	4	22	-47	4
158	6	16	-20	2
158	12	17	4	-2
158	9	14	50	-17
158	5	22	23	-12
157	6	24	-19	-7
158	9	18	8	2
158	10	16	20	7
158	8	17	17	4
158	8	19	2	-1
157	7	18	7	-5
158	4	18	11	0
157	0	20	9	-3
158	-2	21	14	0
157	-4	18	32	1
157	3	19	43	2
157	9	20	22	2
158	8	22	20	11
157	3	22	9	7
157	1	19	-4	0
157	5	16	10	5
157	5	15	4	7
158	7	17	-20	0
158	6	17	-36	-5
158	7	15	-46	3
158	-1	14	-32	12
158	-20	15	-9	9
158	-17	15	1	6
158	-5	14	-5	4
157	7	13	-30	8
157	19	15	-10	1
157	19	22	12	-5
157	22	24	37	-7
157	23	20	63	-9
158	18	19	48	-6
158	12	17	47	-3
157	8	18	40	-2
158	7	20	41	-2
158	4	19	42	3
157	7	17	31	0
157	4	20	10	2
158	4	18	-23	6
158	3	17	-20	4
157	2	20	-9	12
159	-1	15	-2	16
157	-1	18	6	12
158	0	19	7	7
158	2	18	17	2
158	3	21	37	-2
158	2	24	37	1
158	4	18	-2	4
158	2	12	-22	-1
158	0	15	-8	-8
158	-5	14	2	0
158	-21	13	-1	-2
159	-28	16	-1	-3
157	-12	15	-5	-3
158	-3	20	-27	-2
158	11	22	-41	1
157	30	24	-29	-1
158	29	25	-17	3
158	24	18	23	2
158	28	20	48	4
157	29	18	5	4
158	20	16	13	4
157	18	14	41	1
158	11	14	36	3
157	12	18	30	4
158	9	22	31	5
157	5	16	52	6
158	10	13	64	0
158	5	17	69	-11
158	-3	22	10	-21
157	-8	19	-78	-5
157	-8	19	-100	-4
158	-5	23	-60	-6
157	2	21	0	-5
157	0	13	1	-8
158	-6	16	13	-1
157	-6	19	22	-5
158	-5	16	7	-1
157	-4	17	15	3
158	-1	16	9	7
157	5	20	13	6
157	8	23	-2	7
157	7	21	-4	3
157	5	19	3	-2
157	3	22	1	-1
157	1	22	7	1
157	3	19	5	7
157	0	21	5	8
157	0	19	2	10
158	4	18	8	4
158	9	21	6	2
157	8	18	10	0
157	6	18	17	-4
158	12	18	10	0
157	22	20	16	0
158	19	20	21	6
158	-1	21	12	4
157	-45	19	6	7
159	-81	18	3	8
157	-55	17	6	3
157	-18	18	16	7
158	6	17	1	4
158	23	11	2	7
158	32	11	8	7
158	50	10	4	6
158	59	17	7	2
158	70	22	13	-5
157	90	21	25	-9
158	69	25	18	-7
158	35	25	20	-8
158	20	17	9	-5
157	9	18	-19	0
158	-1	21	31	0
158	-8	15	43	3
158	-12	14	-15	4
158	-8	13	-4	3
158	-4	18	1	-6
157	4	19	-17	-13
157	-3	19	-6	-3
157	-10	22	-7	-3
157	-12	20	6	-1
158	-20	19	19	5
158	-18	18	30	6
158	-4	19	32	6
158	1	12	4	6
157	-5	16	-12	10
158	-4	16	5	4
158	-15	15	19	7
157	-41	17	6	10
158	-64	14	-8	4
158	-38	17	-28	-1
157	-3	18	-13	-6
158	1	18	13	-1
158	19	20	28	3
158	40	14	50	4
158	65	10	24	6
157	67	16	3	7
157	50	24	21	4
158	42	24	19	7
157	34	19	16	13
158	22	18	22	11
157	7	16	27	0
158	0	15	4	-1
158	-8	16	-26	-6
158	-12	19	-23	-8
158	-18	19	-16	-4
158	-17	22	-2	-13
157	-12	19	16	-12
157	-17	17	8	-11
157	-10	18	21	-6
158	0	21	26	-2
158	6	26	27	-1
158	19	15	10	8
158	19	13	-42	16
157	12	19	-19	0
157	8	25	22	-9
157	8	27	23	1
157	8	22	46	0
158	-3	14	-27	9
157	-4	12	-73	8
158	-6	17	-8	3
158	-6	17	-28	9
158	0	18	-27	1
158	3	21	-2	9
158	2	25	7	8
158	1	21	73	7
158	2	9	43	10
158	4	9	-31	-2
158	10	22	-43	-6
158	7	23	8	-2
158	3	12	15	7
158	1	16	2	4
157	-2	14	34	-2
158	-14	14	59	-8
157	-20	16	45	3
158	0	22	-22	6
157	12	22	-3	4
157	17	17	12	12
157	23	18	22	4
158	21	20	41	3
158	24	18	9	2
158	21	14	2	-1
158	16	24	14	-9
157	12	24	21	-7
157	7	19	22	7
158	3	19	29	8
157	2	18	19	7
157	2	20	12	9
157	-1	19	8	4
158	-1	17	22	-4
158	2	15	2	2
157	12	12	-34	-4
158	12	14	7	-7
157	6	19	25	-4
157	5	20	14	-1
158	2	17	4	1
158	-1	14	-9	-5
157	0	13	0	-2
157	-3	15	42	3
158	1	20	51	2
158	5	21	29	-2
157	5	21	26	2
158	4	16	-1	6
158	7	14	-13	-1
158	3	15	-8	6
158	5	9	-27	8
158	11	15	-38	0
158	15	19	-10	-7
158	5	14	-15	-6
158	2	20	-19	-7
158	1	19	12	-4
157	0	20	0	2
158	8	22	1	3
158	11	22	-11	4
157	8	20	-9	2
157	-4	24	4	6
157	-6	24	0	-1
158	-3	17	20	-4
157	15	21	44	-2
157	19	21	40	4
157	5	19	4	-1
158	8	19	17	-5
157	4	23	43	2
157	0	17	20	5
157	2	23	9	16
157	3	17	-20	11
158	8	14	-110	6
157	8	27	-62	-1
158	10	20	4	4
158	5	22	-9	0
158	5	19	8	-7
159	0	12	0	2
158	-3	15	52	-2
157	-1	15	41	3
158	6	20	-21	2
157	7	18	-33	6
157	4	15	-51	3
157	4	22	4	0
158	14	17	57	4
158	18	10	85	-1
158	9	11	94	-1
157	2	19	41	-2
158	-2	24	43	1
157	-1	19	64	8
157	1	17	52	4
158	2	13	-19	12
158	9	22	-90	11
157	7	19	-15	-13
157	6	27	14	-6
158	6	27	21	1
157	3	17	47	4
158	4	15	32	9
158	3	12	54	-4
157	1	16	37	1
157	-5	19	-1	9
158	-9	21	-29	6
157	-10	19	-49	0
158	-10	19	-31	0
157	-5	18	5	4
157	-7	19	12	4
158	-9	19	2	4
157	14	13	0	3
158	25	14	6	-1
158	21	22	8	-8
157	22	19	-6	-6
158	24	18	-22	-4
158	28	19	-26	-4
158	28	17	6	1
158	31	16	8	6
159	25	14	-9	-4
158	17	19	-13	-9
157	14	15	-11	1
157	7	11	6	3
157	1	17	3	4
157	-4	19	42	7
157	-12	18	91	11
158	-28	15	52	8
158	-17	8	-10	-1
158	-1	15	-12	-6
158	12	22	8	-6
157	15	18	10	-5
158	12	19	2	3
157	12	19	6	4
158	13	22	34	2
157	6	26	75	5
158	-1	23	92	2
158	-4	14	-12	12
158	-1	12	-142	14
157	2	19	-88	4
157	1	15	10	-3
157	6	21	-13	-15
158	4	25	4	-4
157	3	20	12	11
158	3	21	0	9
158	-2	16	27	8
157	-5	14	51	-1
158	-4	15	53	2
158	-3	15	19	-1
157	3	17	27	-5
158	4	19	3	-7
157	3	21	-43	-7
157	4	21	-59	-4
157	4	19	-46	2
158	7	14	9	3
158	4	15	0	-5
157	3	18	-4	3
157	4	20	16	7
157	4	19	17	9
157	2	15	48	13
157	0	20	79	4
158	0	22	80	-1
158	3	19	22	4
157	18	22	-67	13
157	17	18	-35	1
157	4	15	14	-1
157	7	18	-2	0
157	8	18	-1	-10
157	10	22	-15	-6
158	8	22	13	0
157	6	22	18	2
157	9	22	6	2
158	7	17	8	1
159	10	18	3	0
158	7	21	30	0
157	7	21	19	0
157	5	18	8	6
157	5	19	-2	4
157	7	17	7	-2
157	5	18	9	3
158	4	13	-4	7
158	5	19	2	4
158	7	19	-3	4
158	5	15	0	3
158	5	19	5	3
157	6	16	17	-1
158	6	14	8	-6
158	4	17	4	0
157	8	21	20	-3
158	5	17	32	-7
158	5	20	39	-6
159	3	19	33	-6
158	3	14	3	4
158	8	17	-19	2
157	5	18	21	3
157	4	18	14	6
157	2	12	-7	4
157	1	13	-4	3
158	3	22	-7	-2
157	7	21	-1	-3
157	8	18	13	-5
158	3	21	57	3
158	4	22	65	-2
157	1	17	12	-1
157	4	17	-49	3
157	5	16	3	-3
157	2	15	35	2
158	5	17	-35	12
157	3	17	8	6
157	4	18	18	-6
157	5	21	-35	-13
157	7	18	-47	-3
157	6	14	-21	7
158	8	15	-2	2
157	5	22	-13	4
158	7	22	20	10
158	4	13	25	13
157	0	11	16	9
158	4	19	-4	-6
157	7	24	-3	-18
158	5	26	13	-6
158	8	17	9	-1
158	4	11	27	-3
158	5	20	31	2
157	9	21	42	3
158	6	18	39	11
158	5	18	-2	10
158	1	14	-19	2
158	0	19	23	2
157	2	20	25	6
158	4	23	-32	9
157	10	26	-26	9
157	6	16	8	1
158	1	15	-16	-7
158	6	22	-14	-12
158	4	17	12	-1
158	7	23	13	3
157	9	23	19	2
158	7	11	6	10
157	8	13	21	0
157	4	16	25	2
158	7	19	28	9
158	3	19	52	6
158	5	20	46	4
157	6	12	5	7
157	8	18	-31	2
158	9	24	8	5
157	7	18	21	6
157	3	14	-34	5
157	4	12	-73	7
158	5	17	-41	-13
157	4	18	1	-17
157	3	18	19	-4
158	3	17	46	0
158	1	19	20	-1
157	5	21	24	-1
157	7	22	23	-1
158	2	19	-3	1
158	1	19	17	7
158	3	18	9	7
158	5	18	19	6
157	1	19	38	4
158	4	22	59	6
157	4	15	21	7
158	4	14	-67	7
157	5	17	-26	-6
157	4	13	13	-5
158	8	16	-19	2
158	10	21	6	3
157	10	21	24	10
157	14	23	44	10
158	12	19	24	12
158	8	16	-19	2
158	5	16	-17	-13
158	3	11	0	-8
158	2	10	15	2
158	5	15	20	-10
157	4	17	19	-4
158	-1	18	-6	2
158	3	17	-1	-5
157	8	17	9	-9
157	8	19	1	-4
157	3	24	-7	4
158	5	27	4	3
157	8	25	36	9
158	7	21	45	0
157	3	14	41	0
157	5	11	22	4
157	6	11	13	1
158	0	15	10	0
157	1	20	3	-3
158	3	18	2	0
157	8	17	6	-3
158	17	21	1	1
157	20	21	1	7
158	6	22	9	3
158	-5	19	14	3
157	-3	18	7	1
157	-3	16	-5	3
158	-1	16	-8	17
157	-2	11	-14	9
158	0	14	-8	-5
157	4	23	6	-6
158	3	19	8	-2
158	7	22	15	5
157	3	17	4	7
157	5	17	-10	6
158	5	19	-2	-1
159	4	20	4	-1
158	5	18	-23	1
157	3	15	-27	-1
158	3	16	-19	-10
157	6	18	-19	-8
158	9	18	0	-7
157	5	22	20	-3
157	5	19	29	4
157	3	17	25	-1
158	0	15	39	2
157	1	14	48	4
158	3	16	37	-1
158	2	14	-10	6
158	7	22	-10	-1
158	11	21	37	-5
158	5	21	9	8
158	8	17	11	12
157	4	14	1	18
157	4	11	-18	10
157	5	14	-17	-6
157	9	22	-25	-4
158	10	18	12	-1
158	7	19	37	2
157	6	23	45	-1
158	3	23	25	2
158	7	16	-24	-2
158	4	16	-33	-7
157	3	22	4	2
158	3	18	8	6
157	7	23	-9	5
158	5	22	12	6
157	5	21	30	2
157	4	21	29	4
158	5	19	-5	8
158	5	19	1	6
158	3	18	64	-1
157	-1	18	55	-8
158	3	15	-31	-1
158	12	20	-77	2
157	12	20	-9	3
159	10	18	-6	6
158	7	20	3	-2
157	2	15	64	-4
158	2	14	16	1
157	4	14	22	0
157	4	14	29	0
158	7	16	39	-3
157	8	20	51	-3
158	7	17	2	2
157	7	19	-26	6
157	7	25	-9	15
157	4	17	14	16
157	3	16	-8	10
157	4	17	-2	-10
158	0	18	1	-13
158	0	13	-8	2
158	3	15	2	0
158	4	19	15	4
157	3	15	10	-3
158	5	19	10	-11
157	-1	21	13	-2
158	1	25	0	-3
157	3	19	7	2
158	4	17	-13	10
159	12	19	-14	3
158	11	17	-18	5
157	7	15	3	9
158	3	16	27	6
157	4	21	28	-1
158	0	18	36	-6
157	1	16	5	-4
158	-1	24	-8	2
158	3	21	-1	6
158	18	19	-13	6
157	18	21	-18	-3
158	6	17	-8	-3
158	9	14	18	3
157	10	15	35	6
157	10	12	17	9
157	8	15	-7	-1
158	5	25	-1	-12
157	5	23	11	-7
158	4	21	16	-3
158	7	23	16	1
157	6	23	19	6
158	9	20	28	2
157	14	18	14	10
157	8	15	-7	12
158	-3	19	-15	9
158	-6	21	-15	0
158	-10	18	-24	-3
158	-6	17	-10	-5
158	1	16	41	-4
158	3	19	70	4
157	3	23	70	0
158	3	21	62	-2
157	3	14	22	-5
157	5	9	-24	4
158	7	18	-21	10
157	4	19	-8	15
157	4	14	0	13
158	6	19	-9	7
158	1	14	-6	1
157	-3	13	18	-11
157	3	18	13	-10
157	4	19	1	-5
157	9	20	-13	-3
158	1	21	3	-5
157	-4	19	48	1
157	5	16	13	0
158	-3	22	-20	3
158	-6	22	62	0
158	-7	21	43	0
157	6	19	-65	6
157	21	19	-52	4
157	8	19	5	-2
158	3	15	1	-3
158	24	17	4	-3
158	22	17	8	-3
157	13	17	-15	4
157	12	17	2	3
158	3	17	5	2
157	8	17	10	4
158	20	19	20	3
158	30	25	40	4
157	25	23	60	8
158	18	21	29	13
157	21	18	-8	20
158	29	17	-20	9
159	18	13	-13	-3
158	16	13	-9	-8
158	14	17	-30	-14
158	-14	21	-43	-1
158	-12	18	-12	0
158	-24	19	6	0
158	-34	19	2	-3
158	-9	22	9	-6
157	-3	24	10	-3
158	-5	19	15	0
158	-4	22	18	6
157	-4	21	16	0
158	-6	18	6	-1
157	-1	21	7	-12
158	1	27	18	-2
157	4	21	21	7
158	3	13	13	9
158	1	11	8	22
158	5	15	12	13
157	4	16	7	4
158	14	19	12	-8
158	25	19	22	-6
157	19	16	16	-6
158	17	15	13	-7
157	12	13	18	-2
158	5	15	10	-2
157	3	16	-12	8
157	-17	17	-5	8
158	-31	17	15	3
158	-8	15	15	5
158	7	17	17	-4
157	7	20	7	0
158	16	21	-2	6
158	9	22	23	6
157	3	18	29	10
158	4	11	5	5
158	1	10	10	2
157	-9	17	23	2
157	-10	22	5	0
158	20	19	-9	2
157	28	21	-15	6
157	30	19	-18	4
158	37	19	-11	6
158	22	17	-7	6
158	-15	16	8	-3
157	-73	12	33	-5
157	-39	14	42	-10
158	41	24	100	-7
157	43	20	123	-10
158	38	14	6	-3
157	27	21	-115	6
158	15	32	-73	-1
157	13	28	-4	8
157	5	15	14	12
157	10	6	63	9
157	3	14	28	5
157	1	16	5	3
158	-8	15	11	5
157	-31	9	-62	11
157	-39	10	-50	0
157	-29	1	-3	-6
158	-8	0	-10	-3
158	24	15	10	-5
157	34	15	9	0
158	27	24	16	3
158	40	24	25	8
158	48	26	9	4
158	45	34	4	-2
157	29	36	3	-5
158	-16	37	16	-6
158	-49	23	13	-1
157	-39	22	6	-1
158	-38	16	0	8
157	-27	17	2	10
157	1	18	25	11
157	-12	15	13	9
158	-13	19	-7	-12
157	34	23	-11	-9
158	87	24	0	-1
157	61	22	10	-5
157	30	22	4	-9
157	3	21	12	-13
158	-6	17	27	-5
158	10	17	34	3
157	2	15	27	10
157	7	16	1	2
157	0	16	-11	2
157	0	15	-2	-4
159	3	21	7	-7
157	2	15	10	7
158	-4	11	7	9
157	-5	4	14	10
158	28	-4	5	7
157	113	-11	3	0
157	139	-21	4	0
157	47	-13	0	1
157	28	-4	10	4
157	-10	15	13	6
158	-70	88	27	4
157	-165	130	43	7
157	-219	57	23	8
158	-58	30	-15	11
157	-14	34	8	6
157	-63	3	47	2
158	-63	20	-47	6
158	-5	17	-92	2
158	79	11	8	-2
158	70	5	17	-2
157	75	3	13	1
157	36	8	27	0
158	15	9	18	2
158	23	14	65	0
158	9	19	89	-2
158	31	23	32	3
158	30	21	-91	9
157	33	27	-80	2
157	24	14	-11	-12
158	5	18	-12	-9
157	14	25	8	-6
158	53	16	-20	1
157	96	16	-7	1
157	89	16	24	2
158	86	14	18	0
158	35	13	18	-8
158	-56	12	10	-7
158	-163	13	29	-7
158	-198	8	33	-1
157	-95	0	31	-2
158	-59	3	27	-7
157	-29	11	10	-9
158	6	19	-3	4
158	-21	17	21	10
157	25	9	28	12
157	50	0	8	22
158	39	0	1	13
157	45	3	4	1
158	106	7	21	-12
158	243	17	15	-9
159	272	25	26	9
158	191	36	35	14
157	47	30	34	20
158	-110	29	10	1
157	-256	38	-1	-20
157	-397	46	34	-15
157	-246	34	17	-16
158	55	-6	-23	-8
157	82	-22	-32	1
158	58	-4	-9	7
158	7	28	-4	9
158	-71	54	-2	9
157	-34	94	14	13
158	-18	97	5	16
158	22	0	-8	10
158	16	-3	-22	3
159	-6	9	-18	2
158	-5	2	-18	2
157	-28	23	0	-1
157	-5	4	39	5
157	31	11	38	3
157	102	18	-38	-4
157	87	-7	-91	-3
157	90	-81	15	-11
158	114	-116	42	-6
158	-2	-82	11	0
158	-49	42	13	4
157	-16	179	-19	14
158	94	165	-5	8
157	73	118	-23	8
157	26	126	-10	0
158	37	131	33	-7
158	-13	8	42	-1
157	23	-39	-4	10
158	32	19	-37	4
157	32	-15	35	3
158	13	3	50	1
158	-6	-6	64	-3
158	2	-8	69	2
158	58	-4	33	1
157	99	-9	21	2
158	14	3	9	7
157	-18	1	22	6
157	-77	18	30	-2
157	-118	14	39	-9
158	-96	23	12	-5
157	-41	19	-51	2
157	13	6	-53	4
158	-63	-2	-18	10
157	-92	-6	-14	9
158	-59	-3	-11	11
158	-11	10	-3	15
158	10	2	9	16
158	27	9	36	8
158	62	33	37	-19
158	77	26	29	-23
157	67	26	13	-7
158	28	46	19	12
157	10	49	35	16
157	-5	31	-22	11
158	11	-17	-49	-17
158	12	-71	-12	-28
157	-1	27	-7	-9
158	56	67	-5	-3
158	156	-34	4	1
157	169	17	6	-6
158	57	22	22	0
158	-3	3	20	4
159	-86	22	21	-1
158	-202	5	21	-2
158	-251	21	8	-6
158	-124	12	-9	-7
158	45	25	-10	-1
157	4	22	21	6
157	16	19	16	13
158	10	17	-41	13
157	-7	21	-90	4
157	20	26	-8	-3
158	4	21	51	-7
158	14	28	9	-2
157	2	28	30	-1
158	28	31	65	6
157	33	11	86	7
158	48	6	-3	12
158	71	24	-67	12
158	45	23	-3	6
159	20	21	-1	6
158	-6	22	20	4
157	9	19	50	5
157	58	10	19	4
158	61	-28	4	3
157	32	-50	-26	9
158	-9	-36	-3	7
158	-51	-35	27	-1
158	-86	-6	2	3
157	-126	38	15	-1
158	-88	82	8	0
157	67	120	10	2
158	117	73	0	4
157	51	-15	-19	3
158	7	38	11	-13
157	-9	85	8	-11
158	36	50	-15	-5
157	36	62	-3	-5
158	17	49	16	-1
158	24	57	25	3
157	21	54	41	10
158	0	31	60	15
157	-47	28	45	5
158	-41	24	-13	0
158	13	12	-25	3
158	7	9	11	-8
157	1	15	8	-8
157	5	7	-5	-9
157	-9	14	14	-7
158	-24	6	33	8
157	-38	2	13	2
157	-47	-25	3	-2
158	-90	-71	0	9
158	-58	-56	-4	1
158	30	-46	10	1
157	187	-32	11	-3
158	457	46	2	-5
158	465	43	2	-4
158	234	-15	29	2
158	55	50	61	7
157	-215	108	32	-2
158	-476	96	-71	2
158	-488	30	-82	0
157	-158	-40	1	-1
158	-9	23	-4	4
157	-79	97	9	1
157	0	25	17	9
157	-30	-12	2	13
158	10	26	5	0
157	29	18	25	-3
158	16	18	81	2
158	51	16	35	4
157	38	54	-53	7
157	40	62	-50	0
158	3	35	-1	3
158	19	31	-1	3
157	10	-21	8	0
157	-15	-96	-16	4
157	10	-172	-12	4
158	64	-133	4	2
158	115	13	-7	0
158	129	14	26	1
157	111	86	2	-5
157	37	170	7	-6
157	-11	82	7	2
157	-4	92	20	2
157	-7	17	36	13
157	-77	13	35	10
157	-67	23	48	9
157	7	-5	35	6
158	50	38	37	2
158	106	8	20	10
158	75	30	17	4
157	28	2	-23	-8
158	-7	-3	-46	-11
158	-47	-3	10	-5
158	-7	-6	14	4
157	56	13	23	8
157	84	23	28	4
157	27	62	-5	-6
158	-20	58	-26	-7
158	-80	45	-30	2
158	-97	44	10	9
158	15	38	20	12
157	51	9	9	2
158	41	-10	-3	-6
159	-22	10	-11	-9
157	-112	7	6	-2
159	-171	3	10	-1
157	-44	15	20	1
158	152	15	55	4
158	97	20	58	-3
157	38	3	-37	3
157	14	-10	-102	7
158	-32	-7	-14	15
157	-70	6	20	13
158	-108	3	8	0
158	-23	-3	27	-18
158	23	19	15	-21
157	-13	65	3	-8
157	-8	104	-6	-1
158	-35	20	24	7
157	-18	-23	33	9
157	11	26	23	2
158	-3	15	39	-2
158	28	26	56	-5
157	38	28	1	3
157	45	22	-67	13
157	46	23	-10	10
158	42	17	5	2
158	32	22	4	-7
157	19	7	13	-8
157	11	-4	-2	-1
158	-3	-4	7	0
158	-21	5	10	-2
158	-11	14	32	-3
157	9	21	31	6
157	3	18	21	15
158	27	29	3	10
157	34	42	-4	3
158	14	33	6	4
158	-32	27	-28	3
158	-55	24	-5	0
158	-36	13	28	6
158	-29	10	-9	0
158	-1	7	-4	-12
157	99	11	17	-4
157	260	24	40	-2
157	261	18	53	-4
157	160	-2	48	2
158	73	-7	33	1
158	-124	6	10	6
159	-240	50	1	7
158	-248	66	-11	0
158	-129	19	-7	-6
157	14	4	11	2
157	32	3	10	7
158	57	1	5	4
157	31	18	6	5
158	14	38	9	4
158	-26	38	38	2
158	-79	21	73	5
157	-26	13	-12	12
158	-25	29	-128	6
157	-110	59	-69	0
157	-67	44	0	6
158	-6	17	-28	7
158	29	14	0	0
157	80	16	10	-3
157	94	22	5	0
157	108	21	17	0
158	90	15	6	2
157	66	8	8	-4
158	51	8	-2	-13
157	56	9	14	-7
157	31	4	29	4
157	-42	6	33	6
158	-113	8	45	6
158	-93	6	61	2
158	-82	13	27	1
158	-90	24	-45	11
158	24	-27	-7	-5
158	72	-104	24	-7
157	112	-122	-24	-3
158	141	-99	6	-10
158	93	22	22	0
158	69	119	19	-1
158	160	156	28	-1
158	252	158	1	6
158	125	95	5	3
157	-8	150	17	6
157	-158	86	18	5
157	-292	7	28	7
158	-289	36	16	7
157	-168	-15	1	5
157	0	6	-6	-2
158	-48	-19	-37	2
158	33	-9	-51	-2
158	135	7	-2	-5
158	114	4	16	2
158	93	14	2	0
157	-3	3	16	6
157	-72	16	6	6
157	-195	18	19	-3
158	-192	40	24	-10
157	-34	40	27	-6
157	-5	37	28	1
157	18	15	14	5
157	62	-17	14	3
157	86	-40	6	-6
158	120	-36	-5	-1
157	86	-1	-24	3
158	61	17	-10	15
157	31	22	19	13
157	5	18	51	10
157	20	15	69	11
157	8	9	-8	-8
158	14	12	-107	-2
158	17	17	-40	3
157	12	18	16	-7
158	5	20	-20	-6
158	6	17	-1	-4
158	13	17	-14	-1
157	-13	17	-4	-3
158	-43	18	1	2
157	-37	13	0	7
158	-28	7	20	9
157	-30	5	34	11
157	3	8	48	10
158	18	7	35	4
158	26	8	35	-2
158	64	19	35	-3
157	69	25	46	0
157	47	28	14	4
158	45	28	1	1
158	66	4	27	-5
157	103	-10	20	-6
157	144	8	-5	0
157	54	62	-15	3
158	-109	95	-2	-1
158	-115	48	-3	-2
158	-18	25	7	2
158	-17	33	38	4
158	-70	22	29	-2
158	-26	19	-46	3
157	-142	26	-16	4
158	-267	34	53	0
157	-143	21	10	2
158	80	8	-26	3
157	141	1	-35	-1
157	120	-46	8	-1
157	75	-149	29	2
158	-16	-112	27	8
158	-32	74	18	2
158	-51	74	-13	-8
157	-17	7	8	-5
158	-31	113	16	-6
158	12	224	-14	0
157	59	171	-35	13
157	80	41	2	9
157	132	36	20	8
158	101	15	72	4
158	80	-14	97	4
159	15	-24	-54	13
158	0	-21	-142	11
157	20	-12	-14	4
158	-13	-23	43	9
157	-72	22	11	2
158	-72	72	30	-14
157	-24	58	-15	-12
158	-16	25	15	-2
158	27	22	22	6
158	61	-38	15	9
159	94	-50	5	4
157	82	6	-50	-9
158	50	39	1	-16
157	13	-23	25	-5
158	-36	-24	18	-5
158	-40	15	22	-10
158	-48	-11	28	-3
157	-34	6	21	2
157	-51	10	17	10
158	-37	17	18	10
158	-7	7	13	4
158	8	19	10	6
158	29	23	-5	4
157	42	25	7	0
157	161	26	9	7
157	160	16	0	6
158	48	14	-4	0
158	130	5	-4	8
157	3	21	-12	13
158	-258	17	-13	5
157	-229	17	13	-5
158	-140	20	30	-3
157	-187	16	31	1
158	-137	19	50	1
157	-9	14	103	9
157	-17	11	56	7
158	25	30	-64	8
158	82	36	-50	-1
158	104	35	13	-11
158	63	36	5	-1
158	30	36	15	0
157	28	41	21	6
158	27	25	24	10
157	19	17	29	6
158	-1	23	0	-9
158	25	26	-32	-15
157	5	24	-65	2
157	31	6	-28	2
159	44	2	4	4
158	31	9	2	2
158	-20	-2	0	0
158	-8	-16	-11	7
158	38	-14	16	2
157	-8	29	17	-1
157	50	70	17	-4
157	79	64	15	0
157	75	37	20	0
159	84	1	40	-1
157	89	-24	45	0
158	63	-30	37	-4
158	14	-27	39	-1
157	33	-46	42	4
158	164	-43	-72	2
158	260	-14	-83	-3
158	78	-3	11	5
158	-28	58	-8	-5
158	-181	191	18	-15
157	-398	168	16	-4
158	-366	41	-4	7
158	-109	38	13	6
157	30	28	4	1
158	-106	28	23	10
158	-50	41	30	7
158	2	68	29	2
157	54	60	-15	11
157	57	-33	-20	14
158	20	17	13	-7
156	65	38	5	-12
157	-3	11	6	2
157	-41	30	0	2
158	-23	-3	4	1
158	23	-21	3	7
158	72	-83	4	4
158	111	-65	9	-2
158	122	25	6	-1
157	92	-29	20	-1
158	-12	-13	20	-6
157	-103	62	21	-9
157	-52	28	20	-6
158	-4	-6	19	1
157	-27	-47	20	6
159	16	-11	25	1
157	86	70	42	1
157	66	48	22	3
158	65	-19	6	2
158	61	13	12	0
158	69	23	-33	9
158	64	-1	-79	16
157	35	9	-24	5
157	5	-2	-3	5
158	-30	12	-13	6
158	-12	33	28	-1
157	-18	69	5	-1
157	-16	80	-8	14
157	-11	58	-3	12
157	51	31	4	3
158	110	10	9	-1
158	35	3	20	-10
157	-26	5	18	-12
157	-40	-6	9	-15
157	7	-60	16	-8
157	-75	-43	22	-4
158	-134	30	47	-1
157	-26	71	60	4
157	-208	24	21	9
158	-288	-36	-62	17
157	-100	-14	-23	2
157	50	69	81	-6
157	94	111	48	2
158	59	54	-18	2
158	28	57	-48	7
157	41	93	6	0
157	85	80	16	4
157	51	61	4	0
157	51	11	27	-6
158	49	6	4	0
158	43	18	13	4
157	72	12	0	8
158	74	11	2	-5
158	68	14	2	-4
158	42	14	11	11
157	13	10	11	4
157	4	11	-1	3
157	29	-3	14	1
157	21	-13	0	-8
159	11	-38	0	5
158	4	-77	1	8
157	-29	-106	4	1
158	-61	-49	2	-1
157	-92	20	-26	-8
158	-83	67	-44	-14
157	-79	168	-3	-5
157	-92	108	35	-2
158	-61	49	34	-3
157	-40	100	38	-1
158	12	11	8	0
158	100	0	-13	5
158	122	26	-11	5
158	110	26	22	9
157	79	44	44	3
158	38	-4	-23	12
158	10	-8	-55	11
157	11	-7	-7	7
158	6	0	-21	12
157	-8	3	-22	11
157	-6	-2	9	10
158	-8	2	23	3
157	-7	-2	87	-8
158	-13	2	35	-2
157	-22	2	-6	9
158	-6	10	26	-4
157	18	15	16	0
157	61	15	32	1
158	98	12	27	4
158	77	12	17	-6
158	72	14	13	-14
158	73	12	9	-12
158	-60	19	35	-7
157	-168	19	94	6
158	-100	22	93	13
157	-156	17	-30	20
158	-224	13	-101	18
158	-118	14	-51	10
157	55	22	-43	-15
157	156	39	-49	-13
157	177	33	-28	0
158	123	28	-2	-9
157	13	27	27	-8
157	7	24	10	-10
157	30	24	23	-1
157	17	21	31	0
157	-31	19	41	-4
157	-34	24	60	2
157	-28	15	28	3
157	-5	4	-39	11
158	29	0	-29	6
157	18	-11	21	5
157	46	5	9	5
157	62	29	22	-3
158	88	86	14	-1
157	56	112	11	-6
158	12	68	-6	3
157	-5	32	-18	0
158	-37	-36	4	-2
158	-52	-55	0	2
158	-47	-18	15	0
158	-29	19	17	6
157	-14	19	16	-3
158	-50	-33	20	4
158	-18	6	-5	9
157	79	32	-41	8
157	83	29	-24	12
157	61	46	39	10
157	70	22	43	6
157	86	11	-23	9
158	78	9	-50	4
158	37	14	24	-5
158	-30	28	28	2
158	-78	39	-9	4
157	-112	34	27	13
157	-154	26	40	1
158	-144	34	36	-5
158	-41	18	28	-1
157	-12	-2	21	-2
157	-20	-47	8	-8
158	-63	-86	-2	-15
158	-75	-54	8	-4
158	154	-8	8	-1
158	210	84	4	-4
157	60	124	9	0
158	-14	109	4	6
158	26	101	0	7
157	82	73	0	7
158	0	46	-24	10
157	-44	-13	-22	4
158	-45	-4	28	-4
157	-24	-28	82	-4
158	24	-51	44	-2
158	-4	-26	-54	13
157	-19	11	-46	5
158	-2	70	36	1
157	19	73	38	17
157	12	87	54	9
158	1	28	33	0
158	18	-15	-30	3
158	63	-3	-41	3
158	74	10	-29	-4
158	61	26	5	-12
158	51	32	24	-1
158	16	37	49	-3
157	9	18	37	-3
157	-11	14	-44	3
158	-17	5	-78	2
158	-9	15	-12	3
157	-6	22	-1	-3
159	-4	8	6	-7
157	-5	8	34	-7
158	1	6	20	-3
158	-3	1	30	3
158	-36	-4	15	3
158	-90	0	26	2
158	-95	-11	22	2
158	-73	-8	-12	6
157	-59	19	-4	4
158	16	45	6	-3
157	69	18	8	6
158	78	11	10	9
158	86	29	17	2
157	70	9	13	-4
157	118	19	23	-5
158	93	19	33	3
157	35	13	16	2
157	22	17	-18	6
158	-59	16	-8	0
158	-74	11	56	1
158	-5	10	62	2
158	62	9	-17	7
158	53	1	-64	11
158	-4	3	-14	8
158	-24	8	-16	9
158	-41	24	-20	5
158	-118	31	26	7
157	-126	38	18	7
158	-14	39	-2	0
158	-39	34	-7	-8
158	-99	32	48	-21
158	-52	41	41	-28
157	-25	33	-70	-19
158	69	24	-109	-4
158	225	28	4	2
158	228	8	43	9
158	154	0	9	10
157	98	2	27	7
158	-60	12	8	-6
158	-223	14	13	-5
157	-185	18	-2	14
158	-21	14	4	13
158	-37	15	10	3
158	-37	14	11	7
158	23	6	25	7
157	1	0	23	-2
158	32	-7	43	-2
157	33	7	50	-2
158	125	14	74	1
157	121	14	51	-1
158	52	28	26	-4
159	-1	46	30	-4
157	-101	51	42	-3
158	-79	42	59	-1
158	-54	16	-1	7
158	-7	13	-64	9
157	136	27	-24	-2
158	228	8	1	4
158	204	7	-33	0
158	167	59	-23	-6
157	-23	94	-20	1
157	-199	40	-10	-7
157	-93	-6	-16	2
157	98	15	0	3
158	10	-9	13	1
158	-185	-9	-9	6
158	-175	81	4	5
157	-187	81	-5	7
157	-199	-46	0	4
157	-83	-74	7	3
157	122	-3	2	-1
157	149	110	11	4
158	106	86	25	11
158	68	-23	31	17
158	-9	2	22	18
157	36	5	13	13
157	35	13	4	8
158	55	6	1	2
158	79	-5	-3	1
157	43	-11	31	3
157	27	-24	70	-5
158	11	-41	50	-11
158	2	-41	-37	-15
158	-2	11	-77	-14
158	19	5	-12	-5
157	22	32	16	2
158	10	99	23	9
158	-25	154	45	7
158	-27	129	61	4
157	3	23	90	-10
157	1	-10	37	-16
158	-24	2	-104	-4
157	-62	19	-135	-6
157	-110	-9	-26	-7
158	-108	-10	-29	6
157	-47	26	-20	6
158	-7	47	17	3
157	43	21	4	0
157	73	-11	43	1
157	99	7	32	6
157	113	10	36	3
158	70	3	24	-3
157	21	7	-10	-19
159	-66	0	-16	-5
157	-84	-6	-7	3
157	-39	4	14	5
157	-39	-3	16	11
158	12	-7	39	2
158	100	8	43	10
157	192	20	41	11
158	205	14	16	11
157	105	15	-13	2
158	8	23	-2	-2
158	-83	31	-18	11
158	-113	43	-5	8
159	-91	33	43	7
158	-13	38	24	8
158	-16	35	16	-2
157	-60	23	7	-6
159	-37	15	-10	-6
157	-18	11	-3	-6
157	-60	14	-7	3
158	-149	9	14	1
158	-101	14	19	-8
157	102	11	25	-7
158	148	11	4	-4
157	45	11	-24	-1
158	5	5	1	4
157	-40	6	5	10
158	18	9	-14	11
157	21	19	0	0
157	-1	34	25	-3
158	9	40	28	0
157	-17	37	18	6
157	3	32	43	10
157	-10	31	72	11
158	0	26	-16	15
157	4	17	-82	8
158	19	24	-8	-4
158	36	81	29	-13
159	49	75	14	-12
158	64	1	-2	-2
157	69	-2	2	7
157	72	-22	45	9
158	47	-38	31	7
157	27	-22	-58	-3
158	-15	5	-84	-3
158	-30	33	8	-2
158	-5	57	-1	2
157	-75	71	-9	2
157	-141	4	14	6
158	-93	-18	-1	7
158	-60	-18	29	-6
157	-3	-6	30	-14
158	35	-33	50	-16
158	97	-54	32	0
157	193	56	2	-4
158	163	84	-13	1
157	3	95	-6	17
157	-100	110	29	6
158	25	71	32	-1
158	147	12	54	16
157	116	7	24	19
157	117	26	-23	10
158	61	0	-39	-4
157	-126	-4	-20	-9
157	-200	8	14	2
157	-83	20	6	-1
158	-102	-8	25	0
158	-183	-65	41	-3
158	-111	-93	41	-7
157	-105	-68	29	0
158	10	-7	-28	10
158	92	45	-36	16
158	121	118	8	4
158	129	163	18	7
158	73	85	20	7
157	64	41	21	6
157	12	36	7	0
157	8	15	0	-5
157	0	28	-2	6
158	-32	15	6	11
157	-16	35	2	8
158	13	40	8	7
158	8	-2	13	0
157	6	-45	19	-10
157	10	-42	16	-8
157	7	37	9	-6
157	17	32	18	0
158	32	-42	2	3
158	36	-20	-3	4
158	16	1	-7	2
157	11	-3	-11	0
158	1	15	10	1
158	51	3	15	0
157	38	-1	-3	-6
158	-27	3	-20	0
158	2	11	5	11
158	-73	6	36	10
157	-142	3	42	14
158	-51	26	22	0
158	20	48	-1	-7
159	-52	63	75	-8
157	-100	56	101	-10
158	-68	25	-87	8
157	-17	27	-192	9
158	30	75	-61	-11
158	56	105	8	-13
157	87	45	-8	-8
158	108	13	6	-2
157	122	33	0	6
158	82	3	15	-2
157	14	21	16	-7
158	-27	5	22	-1
158	-10	-3	29	10
157	-49	-11	29	21
158	-94	-52	61	16
157	-16	22	56	-4
157	41	30	16	-12
157	95	-62	26	-7
158	157	9	44	4
157	261	18	-19	-2
157	252	-29	-67	-10
158	54	8	-52	-1
157	-6	43	-24	7
157	-77	75	-3	5
158	-211	-3	22	-2
157	-229	-6	71	2
158	-111	37	94	1
158	-65	51	74	10
158	-82	40	25	17
157	-8	21	-26	9
158	5	33	-3	-1
158	38	22	4	-4
157	0	31	-31	9
157	-35	22	-15	4
158	-26	30	-9	-1
158	-52	34	-4	5
157	-32	37	4	10
158	-17	38	10	4
157	27	22	14	-4
158	77	13	7	-1
158	181	-9	8	2
157	187	-2	4	4
158	83	15	8	4
157	33	19	1	12
157	-20	12	3	8
158	-137	6	6	6
157	-189	6	12	3
157	-13	11	28	0
157	53	21	51	-3
158	-17	29	64	-8
158	-95	-2	45	4
158	-262	-50	-15	-2
157	-253	-57	-99	-2
157	-99	-38	-36	-8
157	33	6	47	-12
157	208	37	44	-5
158	338	90	-6	-7
157	340	128	-94	-2
158	386	29	-21	-5
158	319	-15	13	-1
157	8	3	-1	-2
158	-172	-6	23	-4
157	-111	29	9	-1
158	-119	48	33	-5
157	-86	94	35	-6
158	-7	108	43	-5
157	-42	50	33	7
158	1	37	12	10
157	-44	47	-8	15
158	-89	-2	-14	18
157	-46	-23	23	8
158	-14	49	19	-9
158	-11	81	-1	-5
158	-42	45	-9	-4
157	-21	-11	8	-15
158	0	-28	13	-9
157	15	-14	8	-1
157	16	-23	-8	8
158	10	4	-26	8
157	-4	-2	-27	15
157	9	2	-33	11
159	68	12	3	7
158	120	-7	47	3
158	63	-3	38	-3
158	23	1	5	2
157	38	41	-8	5
157	-98	46	9	4
158	-151	-3	0	4
157	-30	12	-7	7
157	0	22	12	8
157	-30	5	14	7
157	-25	14	26	10
158	-47	13	50	7
158	-32	30	75	6
158	-23	21	60	13
158	-1	22	-12	14
158	28	22	-25	7
158	31	16	6	-2
157	58	21	-17	-4
158	69	10	-15	-11
158	68	19	13	-23
158	24	17	10	-16
157	-53	17	16	-5
158	-107	17	16	-5
158	-64	14	13	-3
158	-3	17	15	-1
157	41	19	7	4
157	106	18	-1	5
158	151	12	-22	7
157	166	14	-20	3
158	131	11	14	2
157	79	1	44	3
157	1	3	78	3
157	-52	17	65	10
157	-37	14	-18	15
158	-26	-8	-45	2
157	18	-28	-63	-19
159	59	23	-79	-9
158	22	103	-25	-8
158	-7	96	-40	0
158	-6	37	-12	7
158	-70	19	28	1
157	-24	2	24	6
158	116	-1	25	-1
157	95	19	9	4
158	3	13	24	4
158	-18	15	18	4
157	-88	12	35	9
157	-202	8	47	12
157	-242	3	10	0
158	-77	11	-25	-16
157	6	29	-12	-23
158	-30	32	13	-14
158	37	22	6	-5
158	29	15	13	7
157	48	4	23	14
157	46	-2	42	10
158	24	13	26	3
157	-4	7	-1	1
158	-16	-9	-6	2
157	37	-7	-15	0
158	73	9	-4	6
157	140	15	3	4
158	146	40	-23	2
158	114	75	-16	4
158	53	103	13	2
157	-50	104	38	-5
157	-167	21	63	-1
157	-135	-38	58	8
157	-57	-44	47	10
158	-183	-46	32	19
157	-168	0	-22	19
158	-71	31	-23	9
157	-3	63	0	3
158	73	128	-11	4
158	67	124	30	-1
158	149	8	30	4
158	228	-15	23	-2
158	173	-18	2	-9
157	51	-25	-37	-2
157	41	23	0	1
157	33	1	10	-7
158	-49	13	8	-4
158	-71	10	34	-3
157	-98	39	93	-11
157	-8	56	47	-8
158	103	-4	-105	-1
157	61	4	-127	8
158	40	8	-44	8
157	30	-4	-9	2
158	-65	6	-14	-8
159	-92	7	4	-9
157	19	14	7	0
158	23	12	10	2
157	-69	24	9	7
157	-28	38	11	6
157	11	33	13	8
159	20	42	8	7
157	71	58	36	1
158	106	9	57	3
158	77	-43	45	2
157	16	-27	17	-1
158	-20	40	10	-4
157	-121	70	14	-3
158	-163	-10	19	1
157	-40	-14	17	4
157	24	11	0	9
157	-20	1	3	9
157	-1	21	3	6
157	-9	10	9	5
157	8	19	15	7
157	50	14	-2	10
158	46	6	-11	0
158	61	10	-8	-4
158	34	6	2	1
157	6	16	13	-4
158	-2	36	27	-12
157	-2	46	23	-7
158	-41	10	-11	-7
157	-55	-6	-29	-5
158	-24	-4	-3	-7
157	-18	41	42	-9
157	-12	77	49	3
158	-40	26	36	11
157	-19	-11	29	10
158	31	-6	-34	10
158	42	-15	-35	13
158	69	-32	-15	3
158	71	-10	-15	3
157	57	-2	5	0
157	20	6	6	0
157	5	43	31	1
158	-15	85	47	0
157	-6	113	59	-4
157	43	103	0	-1
158	50	69	-51	7
157	97	18	5	-2
157	93	0	8	1
158	67	14	-13	7
159	24	54	-17	11
158	-46	36	-4	11
158	-105	-31	66	-2
158	-149	-9	100	-6
157	-82	9	21	-6
158	-42	13	-97	12
158	-75	22	-61	5
157	-67	15	41	0
157	73	23	15	0
157	168	26	-46	-4
157	160	25	-26	5
158	157	-5	7	-2
158	43	-16	12	-3
157	-133	-8	25	0
158	-137	-6	25	0
158	0	1	29	0
158	-64	0	37	-1
158	-45	6	37	-3
157	75	15	35	-9
158	-42	26	43	-5
157	-41	24	39	-4
157	-55	19	-7	2
158	8	32	-44	7
159	95	44	-25	3
158	-28	42	0	10
158	-80	14	-16	7
157	-26	-36	-9	8
158	-2	-61	-7	3
157	18	-35	-6	-15
158	80	2	5	1
157	87	42	0	8
158	105	98	4	7
158	60	136	3	9
158	16	56	1	0
157	27	-9	1	-4
157	34	49	22	-5
157	16	64	28	1
157	-19	15	28	2
158	42	-8	46	9
157	42	-19	42	15
158	7	-11	-3	-4
157	-60	24	-28	-16
158	-17	-5	9	-6
158	85	-35	24	-6
158	-38	-16	8	-3
158	-34	28	-9	0
157	-27	44	-6	8
158	-156	16	1	9
158	-162	54	-13	6
158	-50	72	-1	8
158	1	54	-7	8
159	-15	44	3	9
158	92	12	13	4
157	151	-10	8	6
157	130	12	16	7
157	71	56	17	3
158	-10	89	45	-3
159	-48	65	52	-3
158	-42	8	37	-13
158	4	-12	20	-7
158	-38	-37	-11	16
157	-44	-65	13	11
157	-15	-31	40	-5
158	-2	-54	-32	-8
158	50	-88	-43	-7
157	64	33	15	-5
157	51	80	13	-3
158	27	49	13	8
157	25	28	29	8
157	21	14	83	5
157	13	46	35	2
158	-7	17	-91	2
158	-46	21	-81	-5
157	-52	28	-11	-12
158	-31	33	-8	5
158	-32	37	3	14
157	-33	23	8	18
158	10	8	19	8
158	53	-4	43	-9
157	86	23	8	-2
157	53	16	-15	-2
157	59	20	-24	-9
158	99	28	-7	-8
158	23	35	1	-7
157	-71	39	-10	-4
158	-110	30	3	-3
158	-43	12	1	0
157	5	-14	5	8
158	23	-26	23	7
158	39	-50	22	7
158	57	-77	20	10
157	90	-61	19	14
157	21	-27	24	13
158	-16	41	24	15
158	-41	129	35	10
158	38	176	34	-7
157	75	156	10	-9
158	-36	80	-16	4
157	-37	58	-11	-3
157	-29	34	14	-19
157	-90	5	15	-16
158	-113	3	14	-5
158	83	7	-4	3
158	127	59	0	-2
157	40	17	4	10
157	-10	-18	-12	10
158	-157	-3	-2	0
157	-157	-27	-2	7
157	-48	-21	-3	0
158	-3	-19	2	6
158	-52	-26	10	5
158	-28	-18	14	5
158	-21	1	3	4
157	5	22	37	-3
157	102	33	94	2
157	113	33	73	0
158	112	52	-25	-2
158	45	58	-43	-2
158	-47	18	-24	-4
157	-37	18	-4	8
158	5	1	29	4
157	19	-18	0	-4
158	62	13	-7	0
157	83	25	-12	3
158	88	31	31	3
157	58	31	96	11
158	-38	27	96	11
157	-98	18	-24	11
157	-72	26	-135	8
158	10	20	-61	-12
157	45	4	-33	-15
157	85	10	-27	-11
158	145	15	20	-14
158	148	-3	13	-3
158	48	-33	42	4
157	10	-50	32	6
157	75	-23	10	8
157	121	67	19	-6
157	162	120	43	-9
157	33	96	43	-12
157	-125	44	9	-6
158	-167	-5	1	4
157	-205	-21	-16	4
158	-259	4	-9	2
157	-149	25	-13	8
158	-37	41	-8	13
157	-147	44	22	9
159	-21	20	30	13
157	53	19	38	11
157	19	17	42	10
158	44	17	25	14
158	-11	21	-7	4
157	13	13	-14	-3
158	11	3	-15	2
157	31	5	-31	-6
158	41	15	-28	-5
158	35	10	-8	-4
158	37	11	-5	-11
157	20	13	6	-2
158	15	15	21	-4
157	24	18	35	-1
157	51	11	65	2
158	24	8	38	0
157	-43	2	1	10
158	-56	-3	-17	13
158	-6	-6	-10	10
158	-25	6	2	2
158	11	38	12	-1
157	117	26	26	-5
157	167	-74	37	5
158	144	-142	32	0
157	34	-43	-53	-8
157	-27	87	-74	11
158	-46	62	12	3
157	17	100	52	-1
158	37	189	81	-3
158	-5	91	30	-1
157	2	18	-61	9
157	-24	13	6	6
158	-17	1	35	20
157	0	18	-44	16
157	0	75	-19	7
158	-22	93	29	-3
157	-65	55	21	-11
157	-129	56	-23	-13
158	-106	52	-30	-2
157	16	48	13	-1
157	99	12	-1	-19
158	132	-4	13	-12
157	198	-32	20	-1
158	283	-85	4	-2
158	158	-18	4	0
157	20	9	-5	4
158	12	-33	13	6
157	-128	15	43	4
158	-224	3	59	-1
158	-177	-13	31	4
158	-162	22	-6	3
157	-197	16	-15	-2
157	-131	4	9	0
158	-43	-37	17	6
158	-3	-23	-4	6
158	43	34	0	2
158	25	50	8	-1
158	18	8	10	1
158	56	-1	8	12
157	60	24	9	15
157	21	38	10	13
157	31	89	6	8
158	74	74	23	6
157	133	9	23	4
158	86	25	2	-4
158	-34	31	-9	-5
159	-24	16	11	-3
158	36	4	18	3
157	81	1	8	-6
158	60	32	-7	-21
157	67	17	-19	-3
158	49	-6	-11	5
158	20	-14	-16	2
158	30	3	-16	7
157	-12	17	-5	4
157	-24	11	7	6
158	-88	17	12	-4
157	-101	19	9	4
158	-67	27	-8	3
158	-69	23	-7	-7
158	-14	30	16	-5
157	39	42	21	0
157	74	35	29	10
158	83	14	11	2
157	73	-4	5	-4
158	82	-7	22	0
158	71	4	70	4
158	23	28	129	0
157	-3	23	57	9
158	-59	29	-72	19
157	-147	37	-51	14
158	-124	33	6	-1
158	-24	36	-72	-8
158	-29	5	-37	-7
157	-21	12	-10	-3
158	5	33	-13	0
157	17	25	21	4
158	175	21	-8	8
157	265	-15	20	4
158	146	39	1	1
158	22	51	25	4
157	-107	-6	42	7
157	-372	10	37	0
158	-415	15	29	-6
158	-103	6	-18	-1
158	56	-41	-22	2
157	38	-54	-22	-6
158	89	-28	-2	-9
158	94	8	21	-10
157	82	49	36	-6
158	35	102	26	6
158	21	154	24	6
158	20	99	19	2
157	34	44	-6	9
158	80	34	-6	4
158	47	10	21	-4
157	60	11	32	0
157	33	-18	39	2
158	19	-26	49	11
157	33	-9	25	8
157	38	-23	-3	0
157	67	-21	-34	-4
158	24	-30	-25	1
158	-5	24	-1	11
158	-1	71	23	-1
158	-5	30	41	-4
157	21	14	-7	3
157	-12	33	-48	0
157	-89	28	-36	-4
158	-104	2	-5	4
157	-42	7	6	3
157	47	25	-8	2
157	42	3	-17	6
158	43	-18	-8	1
158	91	34	29	-5
157	93	131	51	-5
158	35	117	75	2
158	-26	-40	102	4
157	-73	-40	71	0
157	8	59	6	1
158	107	0	-28	6
159	32	-38	-105	6
158	-4	-9	-62	-8
157	-77	5	25	-7
158	-180	9	-18	2
158	-173	10	12	7
158	-71	18	-9	8
159	-53	5	-10	-12
158	-86	26	-1	-4
158	24	61	-15	-1
158	-10	61	3	-5
158	10	21	-2	0
158	82	20	29	0
158	169	64	37	8
158	214	27	53	10
157	63	-5	19	13
158	-22	3	-45	21
158	-96	61	-8	10
157	-50	105	29	5
157	-17	28	-14	10
157	-20	-12	-36	4
157	39	-6	-38	13
158	-7	-66	-1	4
158	-16	-81	32	-5
158	61	-7	18	-4
157	117	5	41	-18
157	91	-58	50	-19
158	118	-22	22	-11
157	164	-10	13	-4
157	91	-21	29	3
158	-32	23	27	9
158	-104	48	26	4
157	-122	112	36	-2
158	-222	130	24	4
158	-179	52	6	3
157	0	7	4	8
157	40	33	18	10
158	59	12	17	20
157	70	10	14	4
157	141	17	-4	-29
157	178	19	-15	-27
158	55	15	-8	-3
158	-16	9	-11	0
157	-79	24	3	-5
158	-124	9	5	1
157	-122	17	5	3
159	-7	22	2	7
158	34	26	2	6
158	-68	35	13	4
158	-24	28	21	4
158	27	7	32	8
158	-3	-3	15	6
158	-90	6	19	5
157	-109	9	92	14
158	-32	-1	83	15
158	40	-8	-51	15
158	65	38	-111	7
157	54	56	-56	-6
157	113	-4	-73	-9
158	144	-24	-47	-2
158	108	-35	-6	4
158	22	-62	-41	-4
157	-74	-24	6	-14
158	-42	93	11	-10
158	-43	188	18	-9
158	-72	137	23	4
158	21	65	20	3
157	95	65	25	0
157	61	60	4	6
158	34	7	25	0
157	68	10	29	7
157	-44	23	35	5
157	-158	2	30	6
157	-75	15	29	0
158	-20	-3	30	0
157	-23	-16	28	8
157	8	-23	29	3
158	7	-4	12	4
158	77	0	-1	7
158	96	-11	-2	9
158	28	12	20	-6
157	10	17	28	-11
158	12	-20	-25	0
158	151	-51	-57	3
158	171	-37	-12	-3
157	77	66	0	-3
158	33	129	-11	-2
158	-70	-17	8	-1
157	-129	-20	31	8
158	-101	21	34	1
157	-29	-9	2	-4
158	-40	5	10	-18
158	-62	-28	41	-14
157	-52	-57	45	10
158	35	-89	46	10
158	118	-38	28	7
159	93	36	1	-16
158	44	116	-12	-16
158	-40	151	-2	7
157	-94	99	11	-1
158	-50	57	-9	-2
158	-6	71	1	-3
158	-61	82	29	6
157	-31	73	39	11
158	30	66	25	16
157	20	32	-13	22
158	42	42	-33	16
157	22	11	-30	12
157	17	-36	-18	-2
157	-31	-115	15	-3
157	-77	-99	25	-2
158	-2	7	67	2
157	79	-53	92	-1
157	88	-39	-92	6
157	90	55	-162	11
158	25	91	-11	-4
158	-83	118	7	-3
158	-65	65	9	4
157	-40	70	16	3
157	-58	37	-3	-2
157	19	12	22	0
157	106	20	16	4
158	88	-10	23	3
158	97	-3	24	3
157	73	-10	29	0
158	-10	-9	36	-9
158	-32	-38	33	-12
157	52	-23	6	2
158	15	31	-13	13
158	-71	79	19	6
158	-92	46	17	3
158	-118	-22	8	3
158	-47	-49	4	-1
158	-52	-30	15	2
158	-4	23	40	3
158	18	3	13	6
158	41	-2	-27	6
158	183	-4	-24	-2
157	181	55	5	-19
158	82	122	9	-9
157	3	101	-4	8
158	4	58	-6	10
158	8	34	5	9
158	-38	27	8	2
157	-44	2	20	-6
157	-46	13	6	-2
157	-42	18	-26	-10
158	-16	27	-17	-11
157	-44	20	-17	2
158	-49	16	19	5
158	-31	13	64	0
158	-68	2	61	2
158	-59	-24	48	21
158	27	-67	-1	14
158	116	-59	-5	0
157	108	-24	22	-14
158	79	8	20	-11
157	69	40	4	2
158	-20	118	-15	-4
157	-88	119	-14	0
158	-36	29	1	8
157	-28	13	56	13
157	-114	4	112	0
157	-91	9	16	-2
157	-14	45	-155	9
157	22	42	-86	3
157	31	29	22	2
157	34	14	-3	10
158	41	9	28	-1
158	19	26	8	-4
158	4	25	-6	-1
158	-19	11	1	-5
158	-23	11	12	2
158	35	36	24	0
157	116	42	3	4
158	155	-16	26	6
157	195	-31	9	9
157	147	18	4	6
158	8	83	0	-5
157	-27	35	-27	0
158	-97	-29	-26	-2
157	-218	2	9	-4
157	-129	-3	27	2
158	28	4	31	4
158	38	14	53	8
157	61	4	29	11
157	55	-16	27	8
158	10	-28	14	6
158	58	15	-1	0
159	48	93	4	-2
158	19	77	-4	-10
157	7	-32	-1	1
158	-70	4	12	5
157	-84	66	29	-6
158	12	22	29	-1
157	6	13	30	-12
157	-12	17	15	-9
158	4	17	4	8
158	15	13	-9	8
158	65	16	-24	9
157	23	26	-10	2
158	-20	13	-7	0
158	-39	13	-3	-7
158	-54	-3	-2	-5
157	-100	-2	21	6
158	-81	17	38	-5
157	-37	5	-6	-13
158	-94	14	-44	-6
157	15	18	20	-4
158	81	-11	36	0
158	81	-11	-28	4
157	133	-14	-13	2
157	167	-10	-1	10
157	133	-6	1	11
157	30	6	-8	11
158	-41	86	-4	7
158	-197	148	2	2
158	-289	90	32	6
157	-125	17	87	6
157	46	-2	37	7
158	84	-22	-50	-2
158	128	-6	19	2
158	163	21	77	1
157	166	40	-68	-5
157	106	114	-56	-6
157	33	151	48	-6
158	-35	56	15	2
158	-115	11	10	3
157	-48	6	11	-2
158	20	-27	16	-4
157	10	-49	17	-1
157	5	-17	4	2
158	6	44	10	9
158	12	-26	11	4
158	23	-23	16	3
157	56	-12	-7	5
158	93	2	-27	2
158	42	60	-2	2
158	-32	15	20	3
158	-88	-1	24	4
159	-158	-5	21	2
158	-141	21	-7	9
157	-20	33	-8	3
158	54	10	2	1
157	34	0	-3	-2
158	32	6	15	-6
157	4	11	14	-2
157	-16	-3	10	-6
158	-21	7	4	-1
158	-38	64	12	9
157	-22	99	32	6
157	-2	14	33	4
157	36	-13	20	15
157	47	3	5	13
157	41	4	3	2
158	52	24	-12	2
158	42	17	-19	0
158	23	24	-11	-2
158	17	15	13	-14
157	38	18	51	-10
157	63	10	53	-5
157	16	7	-5	-3
157	20	22	-56	12
157	38	14	-16	1
157	-47	13	-2	-9
158	-113	26	12	-10
158	-110	21	52	-6
157	-78	-1	58	-2
158	-42	-4	28	8
158	47	19	-52	18
158	106	70	-31	6
158	113	55	40	10
157	121	3	50	14
158	56	-2	-13	4
158	10	11	-60	-9
157	95	17	47	-15
157	146	13	28	-10
157	10	24	-63	-3
158	-101	15	-8	-3
158	-142	13	-3	-6
157	-171	26	18	-1
158	-97	18	33	4
157	-1	5	17	3
158	19	10	7	4
157	40	49	-13	3
158	31	63	-3	2
157	67	0	-14	4
157	77	-20	8	-2
158	28	29	10	4
158	13	60	16	9
157	-94	81	30	11
157	-136	12	9	6
158	-40	-6	24	4
157	7	19	24	-2
158	-32	-1	16	-2
158	1	24	3	5
158	14	28	-2	1
158	0	40	0	2
157	1	22	-6	-2
158	-9	13	-1	-2
157	16	5	16	-6
157	23	-4	35	-1
158	10	9	49	2
157	36	-12	40	-1
157	92	-7	6	-5
157	27	11	-18	-6
158	-29	36	-23	5
158	-53	16	1	6
158	-48	-34	-1	4
157	19	-52	-8	6
157	44	-45	9	12
158	63	-48	6	19
157	95	-49	-7	10
157	121	2	-3	4
158	155	103	25	-8
158	185	250	23	-18
157	71	201	-26	-3
158	-45	129	-45	18
157	-29	134	6	2
158	-49	17	49	-2
157	-44	-13	10	0
157	-53	-28	5	1
157	-93	-60	35	4
158	-71	-64	26	-3
158	19	-60	17	-5
158	95	-16	-15	-12
158	38	33	-8	-8
157	-11	39	37	-7
157	-58	-24	48	-4
158	-123	-31	33	-2
157	-158	-23	-25	13
158	-115	-17	22	18
157	-29	-2	89	16
157	7	25	27	20
158	41	46	-27	4
158	19	52	-50	-4
158	26	72	-74	-2
157	32	63	-45	2
157	15	51	18	-1
158	7	17	5	1
158	-10	2	10	0
157	3	-1	4	6
158	-3	12	0	3
158	-5	38	24	-9
158	-1	46	16	-10
158	-37	34	16	-4
158	-17	5	0	3
157	42	21	4	0
158	53	-26	5	-1
158	68	-58	11	3
157	55	24	7	4
158	97	-3	2	0
157	123	41	17	3
158	25	58	23	8
157	-2	-19	27	4
158	36	24	10	2
158	74	10	-5	-1
158	63	15	-18	0
158	93	11	-7	-8
157	119	17	13	-4
158	14	31	19	-1
157	-28	22	8	2
157	-75	33	8	3
158	-188	18	29	0
158	-226	17	33	9
157	-127	12	32	7
158	-37	16	20	11
158	-43	10	3	6
157	-1	15	-32	2
159	34	14	-50	-1
157	122	15	-7	-10
157	117	23	2	-8
157	96	23	8	-6
158	75	27	21	-4
158	-62	26	1	4
157	-17	27	-4	14
158	69	22	31	-1
157	42	22	49	-16
158	-1	-4	1	7
158	9	-38	-40	14
157	-28	-33	-33	-1
158	-79	-33	5	-1
158	-12	-33	33	2
158	1	-27	63	0
158	-82	-27	35	-2
158	-113	26	-31	2
157	-91	34	34	-6
157	-37	75	2	5
157	1	219	-105	20
157	25	241	-48	6
158	45	160	3	-1
157	60	51	72	1
158	36	-1	79	9
157	-90	-4	35	6
158	-134	-9	23	-8
158	-56	9	-18	-7
158	115	-16	12	3
158	141	-23	16	0
157	116	-23	-2	0
158	149	-19	-3	4
158	29	-12	-4	-2
158	-39	-15	8	4
157	15	3	6	13
159	0	9	19	11
157	-92	10	15	0
157	36	4	5	-7
158	83	6	-3	-8
158	126	18	4	-2
157	180	17	18	3
157	73	13	23	3
157	64	17	16	4
158	-60	7	2	-1
157	-97	11	4	2
157	-9	37	-5	2
157	-33	63	-1	4
158	-53	42	13	4
157	-31	18	14	-1
158	-2	16	12	2
158	18	-14	6	3
157	-56	5	9	1
158	-45	18	32	-4
158	53	20	35	-1
158	1	13	19	5
158	-17	32	13	6
158	-36	66	20	-2
158	-42	71	18	-6
158	12	58	-3	-8
157	1	-7	-7	-12
157	-28	-7	-13	-1
158	-33	-31	-13	3
158	-17	-81	-4	1
157	-56	-64	16	-3
158	-111	1	14	4
158	-121	56	-22	14
158	-75	-8	-26	7
158	-3	-19	0	6
158	82	28	20	5
158	113	45	43	9
157	125	38	42	0
158	181	11	-11	-7
158	144	18	-47	-4
157	69	10	-17	-10
157	80	-40	10	-4
158	47	-74	10	4
158	-45	-39	17	5
158	16	58	2	7
157	61	160	2	7
158	-40	249	26	-7
157	-57	268	78	-7
158	-30	93	97	-7
158	7	-41	-11	-7
157	7	-65	-124	0
158	-13	-55	-103	4
157	-31	5	-46	6
158	-28	-77	4	-8
158	-22	-53	20	2
158	-45	10	30	-1
157	-30	-3	49	-1
158	-36	29	7	6
158	3	10	-27	10
158	64	14	-11	-4
158	67	2	21	-5
157	92	18	19	18
158	79	15	45	14
158	-36	17	40	11
157	-57	19	17	-2
158	-30	-3	6	2
158	-123	-6	8	11
157	-121	-2	48	0
158	27	11	44	9
157	52	15	34	6
157	24	41	15	-4
158	0	58	-1	-5
158	-41	77	6	-5
158	-31	61	-15	0
157	-12	30	-14	-6
158	-27	48	17	-1
157	-52	49	31	6
157	-10	36	17	6
157	6	29	9	7
157	31	10	6	4
157	60	-15	15	7
158	71	-14	12	-3
158	111	41	0	-3
157	32	50	18	-2
158	-69	-14	-2	-2
158	-44	-12	-22	1
157	27	-7	-10	3
158	85	-13	-7	9
158	138	1	16	2
157	130	6	19	4
158	79	21	18	-5
157	24	14	17	-2
157	-27	25	-6	4
157	-132	30	-5	-11
158	-79	46	-4	-10
157	69	43	2	-8
159	37	1	5	-6
157	57	-6	8	3
158	-2	9	25	9
157	-23	23	85	9
157	-23	19	120	13
158	-42	5	-17	16
157	16	-9	-183	10
158	-18	13	-112	-1
157	10	45	-16	-8
159	-54	82	-19	-10
157	-107	59	2	-18
158	9	19	-12	-2
158	87	18	15	4
157	11	3	38	1
158	4	9	32	10
158	1	13	32	17
158	-17	10	19	15
157	91	-7	33	12
158	44	-9	13	4
157	-28	-27	26	-5
157	-108	-49	52	-3
158	-131	-31	46	-10
158	-46	4	-20	-5
159	-75	93	-35	10
159	-46	172	35	3
158	35	110	7	8
158	94	-9	-15	6
158	161	-33	-23	6
158	159	-18	-20	0
158	146	18	14	0
158	88	54	12	2
158	-14	40	8	1
158	-34	57	-3	5
157	10	53	23	0
157	14	-8	38	-2
158	-5	-43	25	-2
157	-4	-34	29	-2
157	-35	59	49	-2
157	-44	52	64	4
158	-55	-35	46	9
157	43	-35	-2	9
157	113	-10	-56	3
157	35	39	-71	-7
158	10	38	-50	-7
157	-60	6	-11	-6
157	-150	20	-1	-4
158	-81	11	20	-1
157	106	-22	22	-1
158	30	-29	7	9
158	-102	11	8	6
157	-57	39	-31	-6
157	-90	49	-41	-2
158	-111	62	-23	3
157	-39	62	0	0
158	80	56	21	6
158	51	49	39	9
158	14	25	77	4
158	30	-5	105	-1
158	32	-39	53	-7
158	40	-29	-39	-6
158	31	99	-30	-2
158	48	34	16	-3
157	51	-55	1	7
157	113	37	28	6
157	90	44	72	0
157	-41	44	95	8
158	-92	-1	10	5
158	-94	-33	-100	0
158	-60	-20	-37	-9
158	40	14	5	-7
157	74	73	-6	-3
158	52	42	18	-5
158	44	22	5	6
158	-26	25	-11	13
158	-93	23	-22	14
158	-104	14	13	6
157	-64	10	24	4
157	-36	14	-18	9
158	6	10	-30	4
158	65	10	-19	-2
158	117	5	-33	0
157	129	7	-14	-2
158	41	-2	12	2
157	23	-2	13	2
158	116	-4	31	3
158	174	-4	22	2
157	81	6	36	2
158	-8	34	36	2
158	-44	92	31	-4
158	-123	96	31	-6
158	-172	27	19	-9
158	-87	18	20	-12
157	107	30	29	-7
157	183	42	30	0
158	102	50	24	-2
157	16	-6	15	9
157	-50	-25	-17	18
157	-106	-59	-18	11
158	-101	-88	-14	10
158	-5	-56	5	-1
158	-13	-22	6	3
157	-57	17	-17	13
157	-54	57	-16	2
158	-79	121	0	-1
157	-2	94	40	-3
157	28	17	1	3
157	31	30	-65	8
158	57	38	-39	-1
158	49	56	39	2
157	33	80	121	-15
157	8	72	111	-26
158	10	66	0	-22
157	-26	37	-53	-16
158	5	13	6	-6
157	-21	-41	36	-1
158	-75	-58	0	3
158	-60	-30	-27	5
157	-62	-44	-24	9
158	6	-21	37	7
158	46	6	70	2
158	47	-8	-29	1
157	119	8	-105	10
157	162	34	-18	13
157	84	38	2	10
158	69	19	-7	9
158	65	7	17	5
157	35	97	1	6
158	24	103	17	8
158	-40	-5	3	9
157	-81	-1	15	2
157	-124	17	23	-1
157	-20	40	5	4
