File Name: not saved
Channel 3: 'EKG', 22390 values, raw ADC, no filters.
Channel 4: 'FCR_EMG', 22390 values, raw ADC, no filters.
Channel 5: 'FCU_EMG', 22390 values, raw ADC, no filters.
Channel 7: 'ECU_EMG', 22390 values, raw ADC, no filters.
Channel 8: 'ECR_EMG', 22390 values, raw ADC, no filters.

157	8	14	-30	-19
157	52	35	32	-13
157	31	69	-152	-12
158	57	55	-10	-10
158	104	33	98	1
157	118	11	21	-1
158	67	-94	66	8
157	43	-160	294	7
158	65	132	374	15
157	26	266	280	26
158	3	-28	-8	17
157	-2	-146	-232	2
158	-19	-121	-265	-13
158	-33	15	-344	-23
157	-25	-1	-69	-17
158	5	-46	113	-1
158	-20	36	-3	-2
158	-75	-8	-84	10
158	-33	33	-28	4
158	58	6	43	-13
157	88	25	21	-4
157	-12	36	47	-8
158	-150	31	30	-6
157	-17	49	-62	-3
158	108	39	-89	1
157	17	50	-25	12
157	36	21	47	18
158	16	18	31	21
158	0	17	25	24
158	14	38	68	16
158	-19	28	-16	3
158	28	25	-86	-4
158	108	18	-25	0
158	113	6	45	0
157	24	10	86	4
158	91	8	57	2
157	36	29	-35	10
158	-121	22	-90	11
158	-141	22	1	6
157	5	29	83	2
158	21	20	163	-12
158	-96	17	186	-7
157	-92	11	-17	-5
158	-156	-28	-64	-9
158	115	-34	30	-9
158	264	8	19	-9
157	94	30	23	-13
158	-205	32	0	-3
157	-511	31	-22	-3
157	-249	44	-8	-13
157	64	46	41	-14
157	107	87	-20	-13
157	89	12	-126	1
158	53	-154	-56	-1
158	60	74	148	-8
157	36	282	247	6
158	1	62	-26	13
157	5	28	-38	7
157	5	30	18	9
158	13	-19	-27	7
158	47	21	118	11
157	91	-12	3	17
157	113	8	-41	15
158	70	-1	-68	9
158	-18	6	-80	10
158	-21	4	-12	8
157	-4	5	-8	4
158	1	-6	-19	3
158	60	-23	-67	3
157	47	-19	-26	2
157	38	-29	-2	0
157	66	-2	12	-4
157	88	33	72	1
158	86	87	91	9
158	61	55	22	-1
158	43	11	12	-1
157	1	17	15	4
157	-5	10	3	7
158	-13	14	-33	8
157	-31	-3	-105	13
157	-47	19	-108	5
158	-49	52	-30	-4
158	-42	51	78	3
158	-42	14	37	0
158	-29	-89	81	-4
158	-21	-86	79	-16
158	-27	48	-1	-9
157	-29	14	11	8
157	53	-1	-27	8
158	136	55	31	14
157	135	23	2	24
158	175	44	-3	21
157	103	13	51	11
158	-97	3	40	-7
158	-170	6	-38	-28
158	-116	17	-79	-28
158	-200	32	101	-30
158	-155	35	111	-38
157	1	37	-8	-31
158	-194	11	-13	-11
158	-282	9	-1	11
158	-201	1	39	7
158	-43	16	83	15
157	85	11	62	12
157	202	16	-61	10
157	390	35	-166	15
157	434	88	-88	2
158	280	119	-1	3
158	181	72	-9	7
158	177	-35	-9	5
157	11	-183	-2	9
157	-47	-36	22	10
157	-71	109	-24	21
158	-134	17	-25	18
157	-243	38	30	9
157	-232	36	60	6
157	-50	37	54	-1
157	-89	41	38	2
157	-53	29	88	2
157	-44	26	69	-4
158	-34	-12	-23	-23
157	39	41	-95	-17
158	7	70	-38	-8
158	22	62	40	-11
158	-2	80	97	11
157	19	40	115	11
158	42	-17	-6	4
157	35	-50	-29	9
158	24	-23	-11	2
157	-14	15	-34	9
157	-33	-5	-10	14
158	-45	-1	5	19
158	5	0	-6	23
157	58	46	-85	13
158	117	69	-71	-1
158	225	11	-2	-7
158	408	39	-29	-4
158	386	68	-8	4
157	231	72	48	9
157	175	49	100	6
158	-185	-83	115	-12
157	-682	-111	140	-30
157	-557	17	125	-37
158	-23	-1	10	-34
157	-25	-23	-43	-17
158	-71	3	-54	8
158	-87	-52	-14	10
157	-151	-13	-19	13
157	-5	-50	-25	17
158	11	-148	17	8
158	94	-121	48	9
157	58	217	120	8
157	56	305	131	-4
157	58	25	40	-4
157	23	53	-91	4
157	60	23	-96	-9
157	44	4	-43	0
157	64	35	-104	3
158	58	-1	-51	-4
158	23	8	8	9
158	15	-7	-14	13
158	-3	14	-4	8
158	-134	13	-5	0
157	-120	55	8	-1
158	77	85	-13	3
158	145	95	28	-7
158	124	76	58	-11
158	112	29	-15	3
158	32	-3	-32	4
157	3	-22	-35	3
157	-13	6	-48	4
157	-9	4	-28	0
157	-16	-7	33	1
158	-24	21	93	2
157	21	24	54	4
158	25	34	9	10
158	12	30	27	11
157	-15	2	-8	6
157	-19	29	-4	6
157	-21	84	16	7
157	-38	67	37	0
158	1	38	56	1
158	70	5	37	5
158	61	-71	74	9
157	-1	-23	103	4
157	-93	61	84	-7
158	-79	68	-39	-4
158	64	50	-138	8
158	186	13	-81	-2
158	186	-38	-26	-10
158	169	-76	-27	-4
158	156	-120	17	-1
157	-168	-40	30	8
157	-358	33	-19	8
158	-126	-26	8	2
158	11	48	53	-4
158	-99	39	-10	0
158	-85	26	-56	1
158	-55	30	4	4
158	-27	14	17	-6
158	43	44	18	-22
158	43	27	-46	0
158	58	44	-65	6
158	24	19	34	2
157	26	26	-5	13
158	24	25	34	12
158	38	23	41	10
158	26	34	-110	14
158	14	33	-83	7
158	69	27	51	-1
157	108	16	99	-2
158	74	22	82	-13
157	19	5	49	-12
158	69	7	-5	-5
158	-4	-3	4	-12
157	-191	-57	28	-9
157	-219	-104	27	-1
157	-6	71	0	0
158	38	222	-9	-2
157	-68	53	31	-15
157	2	18	59	-17
157	-19	45	120	-8
158	-7	20	93	6
157	-36	45	48	10
157	-104	11	31	15
157	-67	2	-36	20
158	17	2	-19	12
159	73	23	-30	6
158	94	21	-40	-3
158	133	13	-24	1
157	117	14	6	-1
158	99	24	45	0
157	66	57	-41	2
158	47	62	-82	9
157	16	48	-12	9
158	35	11	17	8
158	-3	-1	27	-6
157	-50	2	32	-5
157	-20	1	-12	7
157	-39	-1	12	-5
158	-12	-6	25	-4
159	-8	-8	-7	-2
157	8	-5	-9	9
157	23	0	-9	4
158	34	9	2	4
158	59	29	-23	9
158	8	27	-28	2
158	-73	8	-26	7
158	-81	-1	-18	6
157	-6	-19	43	7
158	28	21	53	-3
158	94	62	16	-2
158	185	11	30	-4
157	232	-9	49	3
158	97	-1	62	4
157	-97	19	82	-3
157	-219	51	62	-6
157	-243	38	32	-10
157	-128	29	-10	-4
157	-6	39	-55	5
158	43	29	-77	7
158	-28	24	-45	6
157	-5	20	-5	6
157	-15	17	13	1
158	-7	19	6	0
158	-8	4	-20	-5
158	-16	6	-15	-12
158	25	6	-6	-2
158	10	1	-1	16
158	38	3	-3	19
158	26	48	12	14
157	37	85	19	11
158	72	29	-23	13
157	148	-6	-27	6
158	152	17	3	0
157	90	7	-3	5
157	85	22	-19	2
158	-17	22	-9	2
157	-201	12	-12	-2
158	-274	13	1	-3
158	-80	2	29	-3
158	7	2	50	-6
157	-6	9	56	-8
158	48	28	22	-3
157	-15	29	8	2
158	7	18	21	8
157	11	21	40	18
157	-8	15	90	15
158	-10	13	126	-2
157	-22	9	85	-28
157	22	13	-94	-24
158	23	20	-175	-4
158	40	14	-22	-2
158	62	14	72	3
157	79	20	45	2
157	79	28	-20	9
158	78	29	-33	7
158	66	25	-33	3
157	18	26	-39	1
158	-13	17	16	-4
157	-37	10	15	-1
158	-48	15	39	-3
157	14	15	33	0
157	75	19	8	-6
157	10	23	10	8
158	-44	18	0	13
157	-65	15	9	0
157	-53	17	-33	11
158	-6	21	-6	2
158	-17	17	13	0
158	-7	14	-8	4
158	-24	17	12	-3
158	-27	16	1	2
158	9	20	15	4
157	16	22	13	2
157	12	21	13	2
158	15	19	16	2
158	40	19	16	5
157	47	22	16	4
157	28	18	17	-2
158	8	17	29	-1
157	8	17	15	2
157	15	14	12	1
158	24	14	20	-1
157	15	17	26	0
157	-18	19	19	2
158	-37	19	13	4
158	-30	15	2	4
158	-8	22	-9	-4
158	11	27	-17	-1
157	38	19	-15	-1
157	65	19	-11	3
157	68	20	-19	8
157	36	9	4	11
157	7	-14	30	15
157	10	-11	55	2
157	-2	10	70	-8
157	-7	17	19	-4
158	-8	26	-18	-4
157	-13	28	-13	-5
158	-32	36	-26	-4
158	-72	38	-26	4
157	-56	33	9	2
157	-12	35	43	-6
158	-4	29	53	-7
158	25	19	34	-5
158	43	19	18	-1
158	53	18	6	2
157	48	15	5	7
158	17	14	10	9
157	-24	11	-3	7
158	-68	15	-10	6
157	-47	16	-21	2
158	-20	14	-19	0
157	-4	7	2	7
158	35	10	-4	6
157	63	15	-10	1
158	61	19	-8	-2
157	39	25	0	-4
157	33	26	17	1
158	32	25	13	0
158	5	21	15	-1
157	-6	19	19	0
157	-8	16	10	-1
158	-16	16	19	4
158	-27	17	15	4
158	-24	16	12	-4
158	-11	14	19	-3
157	-7	14	15	-5
157	0	12	15	0
157	10	13	17	2
157	13	18	14	-3
158	8	17	8	-3
157	4	21	14	-2
157	11	21	13	4
158	12	24	16	-1
158	-2	22	27	0
157	0	24	20	3
158	1	22	-4	4
158	-1	17	-29	8
158	-1	15	-45	18
158	-2	9	-37	11
158	-4	16	-8	0
157	-3	16	0	-1
158	4	15	2	-10
158	8	12	-6	-9
157	8	12	4	-5
158	4	21	12	-1
158	8	19	4	1
157	3	21	8	7
157	-16	25	0	9
157	-22	23	5	3
158	-7	21	11	2
157	-9	18	15	-2
158	-19	17	15	-2
157	0	19	12	3
158	18	24	22	3
158	33	22	22	7
158	39	22	21	4
157	64	24	13	7
158	87	24	2	4
158	60	19	0	3
158	32	15	3	2
158	11	17	16	-1
157	2	15	13	3
157	-6	11	16	-1
157	-18	16	17	-9
159	-24	19	14	-12
158	-21	17	15	-1
158	3	21	12	11
157	3	19	22	7
157	-8	18	26	4
157	1	18	14	-1
158	12	16	2	2
158	11	15	2	4
158	-6	16	9	4
157	-7	17	-6	10
158	4	18	-18	7
157	1	16	-19	5
157	-1	9	-28	4
157	-2	10	-17	-1
158	-8	12	17	-6
157	3	20	27	-3
157	6	24	13	1
158	-8	19	9	0
158	-3	19	13	-4
158	-5	23	17	-2
157	-4	21	20	-2
158	3	19	26	1
157	1	19	22	1
158	5	16	10	-1
157	3	16	9	0
157	5	19	5	0
158	5	17	0	3
157	5	19	2	2
158	7	17	4	0
157	13	18	1	3
158	10	21	8	6
157	5	19	13	3
158	-1	19	5	4
158	-29	19	1	7
157	-54	15	-14	2
158	-35	15	-32	2
158	0	18	-43	-4
157	11	17	-24	0
158	24	19	14	1
157	46	22	40	0
158	71	32	39	0
158	64	33	38	0
157	39	24	49	1
159	20	18	39	-2
158	3	19	35	-6
158	-3	18	41	-7
158	-26	20	12	-6
158	-24	22	-8	0
158	-11	19	-11	6
158	-34	19	-29	9
157	-50	17	-12	10
158	-22	12	-1	7
158	19	18	-13	11
158	41	22	1	3
158	56	27	0	-5
158	66	25	-7	-4
157	68	20	13	1
157	41	22	25	-1
158	25	17	43	1
158	-2	11	71	-1
158	-19	14	56	-1
158	-10	17	2	6
157	-9	15	0	-8
157	-8	15	26	0
158	-9	16	5	4
158	-10	14	-26	-2
157	-8	14	-46	2
158	-7	6	-19	0
157	-5	12	7	-1
158	-4	16	5	6
158	-4	17	10	7
157	-9	17	-13	-8
158	-21	13	-37	-18
159	-15	13	-17	-15
158	-6	14	30	-1
158	-2	16	48	8
158	8	13	8	7
158	15	20	-18	9
158	28	22	-3	6
157	25	22	-1	0
158	13	24	0	6
157	14	17	7	7
158	16	19	7	10
158	8	22	13	13
158	0	18	16	14
157	5	17	18	14
158	3	18	18	10
157	1	17	13	-2
158	3	21	9	-20
158	3	19	-16	-23
157	8	22	-32	-17
158	11	18	-3	-5
158	12	18	10	-8
158	8	18	19	-6
157	8	14	18	-5
158	4	18	6	2
157	5	21	15	6
157	4	21	12	4
157	5	18	5	6
157	6	19	2	6
158	5	17	9	10
157	5	17	20	10
157	5	19	41	14
158	5	21	70	16
157	3	19	52	7
158	3	19	-31	7
157	9	17	-102	9
157	9	19	-55	-4
158	3	15	0	-7
158	-1	10	19	-3
157	-1	14	22	-10
157	1	19	-5	-6
157	3	17	-13	1
157	7	18	-18	3
157	13	21	19	9
157	20	24	22	4
157	17	22	15	4
157	-2	17	41	6
157	-12	19	32	0
157	-28	18	15	-1
157	-45	15	2	-1
158	-56	14	42	0
158	-67	14	59	-5
158	-17	15	7	-1
157	34	17	-14	7
158	67	19	-8	6
157	115	21	-8	1
158	117	26	-15	2
157	112	23	-35	7
157	72	15	8	7
157	-4	17	49	5
157	-39	17	30	5
157	-57	16	18	5
157	-42	29	21	2
158	34	32	40	-1
157	34	23	40	-4
157	-2	21	18	2
158	-14	25	2	5
157	-40	23	-16	2
158	-29	15	-23	10
158	-17	10	-39	10
157	-9	18	-38	6
157	-1	19	-20	3
158	3	15	8	-5
158	15	23	54	-7
157	17	21	54	1
158	16	17	27	9
157	11	13	27	22
158	7	14	19	33
157	2	16	-22	33
157	-1	15	-60	34
158	-5	14	-29	30
157	-4	15	56	16
158	-3	17	78	10
158	-1	18	53	0
157	1	17	4	-22
158	3	13	-47	-46
158	6	17	-16	-59
158	4	11	43	-68
158	0	9	83	-77
158	3	15	97	-63
157	7	18	-6	-31
157	2	21	-59	2
157	8	23	-16	28
158	8	21	-55	36
157	6	18	-55	33
157	7	17	17	24
157	8	24	83	6
158	10	30	43	-7
158	5	26	10	-8
158	5	21	21	-3
158	0	10	21	-1
158	-1	1	93	0
157	3	10	-65	-10
158	2	21	-260	-13
157	3	22	-114	9
157	5	22	-52	4
157	5	23	-73	-4
158	5	27	-20	-24
158	5	25	34	-40
157	11	20	145	-20
158	12	15	85	-7
157	11	16	-29	2
158	7	23	39	27
157	7	22	81	39
158	4	18	78	25
157	0	15	91	19
158	5	19	60	17
157	8	19	20	8
158	9	18	-50	1
157	3	18	-137	-4
157	-20	15	-189	23
157	-24	9	-137	43
158	-2	9	42	40
157	5	9	158	28
158	4	11	138	3
157	4	14	179	-11
158	11	18	109	-7
158	21	30	-12	-11
158	12	25	92	-14
158	19	22	36	0
158	24	26	-54	6
157	9	26	-3	6
158	14	17	-14	7
157	31	14	23	12
157	36	15	17	10
158	27	17	-33	4
158	17	23	-15	9
158	14	19	-40	11
158	8	19	-71	15
159	0	18	6	17
158	-4	17	72	8
158	-4	9	32	1
158	-6	10	-9	-9
157	-16	13	14	-13
158	-27	17	-22	0
157	-17	22	-72	-2
158	-3	14	-57	-2
158	0	14	-9	2
157	4	17	51	0
158	21	17	68	9
158	29	15	63	2
157	14	24	-25	-4
157	1	32	-40	6
158	4	26	22	4
157	7	23	-46	10
157	4	17	-75	14
157	2	14	-78	13
157	0	20	8	19
158	2	26	105	18
158	4	21	65	16
158	3	16	29	-2
158	5	18	5	-23
157	-1	11	-80	-41
158	-3	7	-139	-43
157	0	17	-74	-21
158	-2	18	32	-14
158	1	18	27	-19
158	3	26	-9	-31
158	2	24	3	-46
157	2	21	15	-32
158	5	21	47	0
157	5	18	-16	16
157	4	19	-100	36
157	5	14	22	58
158	5	11	166	55
158	6	17	174	41
158	7	17	140	37
157	5	19	97	31
158	3	30	21	8
158	5	24	55	-6
158	8	11	159	-31
159	7	21	33	-54
158	8	23	49	-65
158	4	14	58	-62
157	2	23	-134	-64
158	5	30	-54	-30
158	7	16	119	-2
157	2	9	139	17
157	3	11	-28	47
158	2	11	-91	71
157	0	5	-99	78
158	4	10	-141	36
158	12	22	-101	39
157	13	19	-64	29
158	6	14	95	-12
157	7	12	57	-1
157	11	13	-52	-21
157	8	17	13	-77
157	8	19	-32	-82
158	16	37	-121	-80
158	16	43	-195	-43
158	10	35	-148	-2
157	7	37	-146	9
158	5	27	-258	32
157	4	11	-49	22
158	2	3	368	37
157	-5	3	385	25
158	-18	-15	257	4
158	-17	-6	300	-2
158	-1	25	86	-18
157	1	18	-25	-24
157	-9	15	-74	-7
157	-8	15	-88	16
157	16	19	-87	28
157	21	23	-180	41
158	18	15	-13	17
157	20	14	80	9
157	26	19	102	3
158	30	30	21	-5
157	18	28	33	-8
158	5	28	84	4
157	-8	29	29	16
158	-13	29	19	17
158	-49	22	-26	15
157	-69	16	-9	15
158	-21	10	-101	18
158	41	13	-54	11
157	80	25	-52	18
158	71	25	-175	14
158	71	24	-99	4
157	67	23	-58	2
158	30	18	96	-8
158	0	21	264	-5
158	-2	27	122	8
158	19	15	24	7
157	107	13	88	11
158	161	20	-27	10
158	77	17	-77	5
157	31	10	-66	4
158	-50	14	-56	-4
157	-133	17	84	-6
158	-218	15	45	-4
158	-296	23	23	2
157	-94	21	84	11
157	37	21	0	23
157	10	19	-23	21
158	16	17	-20	13
157	-22	24	24	12
158	2	18	105	12
158	13	18	-24	15
158	-20	17	-122	10
158	-17	17	-107	-1
157	-3	22	-130	-16
158	12	22	-40	-32
158	17	15	63	-52
157	29	11	43	-47
157	35	8	156	-16
158	51	11	159	-1
158	58	15	19	3
158	62	11	47	-4
158	53	17	26	-14
157	35	17	-1	-19
158	26	9	-12	-24
158	14	7	-141	-20
158	15	13	-174	-13
158	14	19	6	-20
159	7	15	93	-26
158	3	21	55	-6
157	-1	15	198	-1
157	-5	16	193	-4
157	-3	23	-118	-16
158	-3	27	-50	2
158	2	32	-23	26
158	8	22	-151	14
158	11	33	55	20
157	14	39	85	12
158	5	24	99	11
158	3	19	70	13
158	3	13	71	12
158	3	9	180	7
157	2	19	-38	11
157	2	15	-218	27
158	1	13	-104	29
158	-3	14	49	18
158	-10	9	3	11
158	-10	17	-132	7
157	-1	19	-250	7
157	0	19	-272	7
158	-5	10	82	6
157	-5	17	385	12
157	1	31	66	12
157	7	18	-111	16
157	-3	13	108	10
157	-5	22	7	-2
158	5	22	-48	-1
158	14	24	-62	-6
157	19	17	-87	-1
157	28	18	-37	17
157	30	25	-12	18
158	17	23	75	14
157	7	22	55	0
158	14	21	91	-15
157	18	15	70	-24
158	-4	12	30	-23
158	-40	11	34	-8
158	-56	15	-94	0
158	-35	19	-30	7
158	-19	24	135	13
158	7	23	120	14
158	44	14	36	15
158	51	23	-7	6
158	58	19	74	0
157	69	23	116	9
157	40	23	100	-12
157	24	17	71	-19
157	18	21	-56	-18
157	7	17	-83	-33
157	-4	16	-86	-42
158	-8	17	-72	-48
158	-8	15	-35	-52
157	-16	14	-29	-38
158	-17	15	22	-7
158	-23	10	43	10
157	-20	7	37	32
158	-11	15	-11	36
158	-3	18	-19	33
158	2	24	-45	35
158	15	28	-90	37
157	13	15	18	39
158	-3	17	108	31
158	-5	13	19	24
157	-26	12	-52	22
157	-44	18	66	6
157	-23	6	91	-13
158	-11	10	-15	-13
158	3	13	1	-30
157	31	28	-100	-18
158	80	31	-137	-14
157	125	27	-21	-17
158	97	37	-15	-7
158	47	30	211	-14
157	17	19	317	-18
158	1	15	163	-26
158	-35	19	8	-15
158	-36	9	-152	-6
158	-29	11	-126	10
157	-25	16	3	14
158	-49	17	45	16
158	-135	13	-117	13
158	-31	15	-96	12
158	59	28	37	8
158	19	24	-14	9
157	28	19	98	37
158	3	16	-23	39
157	-3	16	-98	37
157	1	18	-10	29
158	-12	12	-44	12
158	-4	10	24	-9
158	-7	14	-39	-26
157	7	16	-30	-44
158	10	13	-115	-59
157	32	18	-125	-15
158	42	28	68	19
157	26	23	135	0
158	7	16	151	-9
157	-8	11	66	-7
157	-5	10	9	-1
158	-18	16	15	-1
157	-29	15	131	2
158	-7	17	64	-1
157	17	24	-24	9
158	27	26	41	3
157	35	20	-32	10
158	46	22	-49	30
158	43	22	-47	16
158	28	17	13	31
157	19	21	65	30
158	22	21	135	18
158	23	8	235	22
158	29	6	97	-1
157	20	13	-66	-19
157	9	25	-104	-15
158	4	32	-157	-32
158	-13	25	-100	-33
157	-33	15	-32	-15
158	-39	19	-22	-9
158	-17	18	107	-6
159	-16	13	129	4
158	-27	21	63	11
158	-22	30	-65	4
157	-29	17	-162	8
157	-35	8	-279	15
158	6	19	-393	16
158	40	19	-128	13
158	30	13	276	7
157	30	9	431	-9
158	56	18	248	-21
157	93	28	138	-12
157	69	29	-29	9
158	15	14	-40	6
158	25	9	90	-4
157	35	16	-6	6
158	8	9	80	0
157	-19	15	-15	15
158	-22	15	-85	16
158	-23	28	-40	12
157	-47	30	-43	6
157	-21	18	-5	-10
158	43	12	11	-4
157	137	7	15	2
158	141	16	-37	4
159	73	15	-19	9
158	59	19	-18	7
158	-2	22	-19	8
158	-95	20	-57	6
157	-275	16	-68	3
158	-332	19	-4	6
157	-59	23	27	9
157	20	19	24	4
158	-31	19	5	3
158	-7	16	52	3
157	-43	15	109	-1
158	-9	19	49	0
158	17	22	23	-2
157	33	17	92	-12
158	40	17	29	-12
158	41	26	-36	-5
157	55	26	29	0
158	43	29	38	8
158	43	24	-10	4
159	38	11	-16	-4
158	28	8	38	-23
158	-5	5	25	-41
158	-15	10	-65	-38
157	9	16	-61	-32
157	12	19	-35	-21
158	18	22	-25	3
157	27	23	-27	6
158	36	19	-19	4
158	43	22	-20	11
157	84	27	-91	10
157	97	26	-77	9
157	46	26	89	9
157	12	24	190	15
157	5	15	91	14
157	-9	16	10	18
158	-2	19	-42	10
157	15	15	-17	6
158	10	18	1	11
157	-8	19	-53	15
159	-9	14	-4	21
157	-5	16	-31	25
157	3	17	-9	21
158	7	19	89	6
158	-5	17	118	0
158	-12	6	124	-3
157	-16	7	113	-13
157	-21	15	9	-8
157	-16	25	-102	-7
158	-17	27	-50	-6
158	-27	16	-70	3
157	-21	17	-11	6
157	-11	17	74	11
157	-11	13	31	7
158	-2	15	-9	-1
157	7	19	-33	5
158	7	15	-18	8
158	6	13	4	7
157	10	19	40	-7
158	15	22	28	-2
157	17	21	1	17
157	18	19	-1	22
158	16	21	25	22
158	10	24	27	20
158	9	20	15	19
157	3	16	13	8
158	2	22	8	-1
158	5	24	25	-19
158	7	22	5	-34
158	7	20	-9	-44
158	3	17	-17	-64
158	3	17	-14	-58
159	-1	16	-24	-31
157	-1	17	-16	-13
157	-2	17	-10	-8
157	-14	18	-4	2
158	-20	17	50	9
158	-2	21	72	5
158	18	22	100	7
157	9	18	64	16
157	5	13	3	19
158	14	11	-5	20
158	21	11	-27	31
157	9	19	-21	31
158	0	18	-30	26
158	-6	10	-37	13
158	-31	17	-30	9
158	-35	18	-19	15
157	-10	24	-22	10
157	15	28	-10	8
157	26	14	36	-2
158	19	11	52	-8
158	33	11	24	-8
158	51	25	-77	0
157	38	30	-56	5
157	11	16	21	5
157	9	20	-2	6
158	25	25	21	8
158	16	22	9	5
158	13	16	12	-2
157	19	17	17	4
157	25	19	1	2
158	21	17	9	0
158	5	24	8	4
157	7	21	45	-1
158	2	24	43	-4
158	-5	18	41	-6
158	-14	11	10	-10
158	-27	11	-16	-4
157	-36	9	-21	12
157	-23	21	-11	8
158	-9	22	49	12
158	5	25	38	14
158	25	28	42	-7
158	28	18	38	-15
158	20	11	9	-17
157	0	6	-50	-16
157	-15	14	-85	-19
158	-5	16	-4	-2
158	8	21	4	8
158	0	22	-15	7
158	-5	21	-11	2
158	-1	19	64	-3
158	1	19	119	6
158	0	25	24	4
157	-1	21	-45	8
158	0	17	-48	11
158	3	16	-26	13
158	2	13	-12	7
157	6	17	2	2
158	4	17	14	2
158	5	18	17	2
157	7	19	16	3
158	3	18	-4	2
158	7	16	0	4
157	6	11	35	-1
157	4	14	42	-2
158	7	14	16	4
157	7	17	7	6
158	4	13	1	7
157	7	13	7	10
157	7	17	60	7
157	7	17	52	9
157	4	21	9	6
157	7	25	48	10
158	9	23	60	22
157	11	23	45	19
158	13	25	18	7
158	7	14	-22	-9
158	1	14	-61	-34
157	11	26	-110	-36
158	11	24	-67	-39
158	7	22	-51	-54
157	10	24	-29	-30
158	7	25	6	-16
158	3	19	-34	-14
158	7	19	-4	-10
157	9	22	20	-14
157	7	19	66	-5
158	4	19	58	11
157	4	17	46	23
158	3	15	132	31
158	5	17	91	41
157	5	21	-1	35
157	0	25	23	14
157	-11	24	98	3
157	-13	21	50	0
157	-4	6	52	-16
157	-2	4	-69	-22
158	9	17	-181	-6
157	14	15	-57	2
157	27	25	-39	8
158	27	30	9	16
159	17	24	0	22
157	13	16	4	29
157	12	9	34	29
158	13	15	19	30
158	8	14	-52	29
157	7	17	-37	25
158	6	21	82	19
157	3	16	24	-3
158	-2	14	-60	-15
158	1	18	-43	-17
157	3	26	82	-32
157	0	20	50	-33
157	5	19	8	-37
157	1	16	5	-38
157	-2	15	-22	-20
158	-1	19	15	-13
158	-3	19	0	-2
158	0	19	32	7
158	1	21	10	13
157	3	17	18	25
157	10	17	15	26
157	8	20	-4	14
158	-3	12	-11	7
157	-11	14	-53	-4
157	-10	15	-39	2
158	20	15	4	9
158	38	22	45	8
157	9	22	6	17
157	-9	22	8	3
158	-14	15	32	-1
157	-33	13	54	7
157	-24	17	60	14
157	1	15	21	11
158	6	12	16	1
158	9	10	-7	-5
158	16	13	-8	-6
158	32	15	12	3
157	32	19	24	0
157	18	25	18	0
158	8	23	8	-3
158	-2	22	9	3
157	9	17	8	5
157	17	15	15	2
158	13	19	7	4
158	13	21	-26	2
158	9	24	-35	4
158	13	22	-21	8
157	4	18	-22	8
158	4	21	4	-6
158	22	17	14	-5
157	21	14	37	-7
157	15	11	73	-6
158	12	15	24	-4
157	5	19	22	0
157	1	19	43	4
157	-3	22	2	4
158	-14	18	29	4
158	-13	22	-4	-2
158	-10	16	-31	2
158	-9	17	-24	-2
157	-5	20	-54	0
158	-1	11	-31	5
158	14	15	-19	3
158	16	19	6	3
157	4	17	9	1
158	5	14	7	0
157	9	17	-4	-9
158	11	25	2	-13
158	8	25	23	-10
158	1	18	25	-13
157	-11	18	38	-13
158	-24	16	21	-9
157	-17	14	8	-2
158	-3	17	6	-1
158	0	15	12	10
158	7	16	10	15
157	12	17	13	14
157	16	17	17	14
158	25	23	16	11
158	27	20	14	12
157	27	19	1	9
158	21	19	-3	3
158	23	22	3	-5
158	20	22	15	-6
158	8	26	5	-4
158	0	24	-7	-10
158	-4	23	10	-9
157	-7	22	20	-6
158	-2	19	19	0
158	1	24	21	8
158	-3	24	27	7
157	-7	22	10	7
158	-4	19	-22	14
157	1	19	-29	13
158	0	20	-20	11
157	3	19	-11	10
158	0	19	1	7
158	-1	17	-6	10
158	2	19	5	4
157	0	15	27	-5
158	0	15	39	-15
158	-3	15	42	-14
158	-8	15	16	-14
158	-32	22	16	-7
158	-37	19	8	5
158	4	14	-12	13
157	20	13	-6	20
157	12	11	5	11
158	24	14	17	7
158	48	14	13	4
158	53	18	-19	2
158	34	23	-26	3
158	24	28	-11	-10
158	24	24	18	-9
157	14	22	50	-5
158	3	21	34	-7
157	-2	17	17	-7
158	-5	21	17	2
157	-3	15	21	0
158	-4	18	35	-3
158	0	17	39	4
158	2	14	40	-2
157	1	15	47	-13
158	2	11	-2	-25
158	2	15	-93	-22
158	-9	19	-68	-11
157	-28	17	-4	0
158	-26	18	2	13
157	-6	17	4	7
158	-1	10	19	15
158	-7	7	45	22
157	-1	6	-12	20
158	41	13	-7	13
158	54	18	10	13
157	23	25	-14	11
158	16	24	19	-2
158	29	20	2	-5
158	25	22	8	-9
157	7	21	-10	-4
157	0	20	-5	4
158	3	19	11	9
158	0	18	-2	14
159	-1	18	12	10
157	0	15	-1	2
157	-3	13	4	3
157	-2	13	6	4
159	-3	16	20	6
157	-3	18	28	8
158	-3	17	20	3
158	0	17	10	4
158	-1	19	9	2
158	3	20	18	-1
158	5	19	10	3
157	1	17	6	10
157	3	14	10	11
158	2	19	11	2
158	3	24	10	-5
157	4	24	22	-9
157	4	24	16	-7
158	6	19	-15	2
157	6	15	-16	-1
157	9	14	-1	2
158	11	19	2	4
158	8	21	14	2
158	-2	19	25	9
157	0	19	25	7
157	5	21	2	3
158	12	22	-22	-4
158	14	19	5	-10
157	10	15	18	-9
158	5	20	10	-3
157	-9	19	19	-1
158	-36	19	14	4
157	-39	17	12	6
158	-28	14	5	5
157	-15	15	0	7
158	1	17	-6	-3
158	14	16	-8	-17
158	29	21	-10	-10
158	47	24	-3	-3
158	59	25	8	-2
157	72	26	8	-2
158	64	22	10	0
157	40	18	5	-2
158	24	18	15	-2
158	9	17	18	3
157	3	17	25	5
158	-8	18	24	3
158	-9	16	-7	9
158	-6	20	-14	12
157	-9	18	-11	11
158	-8	19	-18	15
158	-12	16	-13	10
158	-13	14	-14	0
157	-8	18	-26	1
158	-3	21	9	0
157	-4	17	43	-2
158	-6	18	45	4
158	1	24	50	2
158	-3	22	49	-8
157	-4	18	66	-19
157	-4	15	60	-18
157	-4	13	30	-13
157	0	15	14	-8
158	-3	18	9	-8
157	1	19	-11	-9
157	8	22	-33	-3
157	9	17	-47	8
157	5	12	-64	19
157	5	12	-42	18
158	4	12	-37	19
158	8	16	-40	15
157	5	15	14	12
158	4	14	97	7
157	5	15	140	-2
158	7	17	94	-5
158	8	15	23	-1
157	5	17	-16	3
158	7	21	4	3
158	6	21	-17	2
158	8	22	-19	3
157	11	19	7	2
158	8	20	-5	4
157	7	19	8	6
158	5	17	-2	0
158	3	20	-16	2
158	7	19	-13	4
157	10	20	6	6
159	11	21	14	10
157	9	22	1	4
157	1	19	0	0
158	1	17	-18	2
157	5	15	-39	-5
158	3	15	-47	-7
157	5	19	9	-7
157	3	17	79	-6
158	4	14	57	-8
158	5	15	30	-5
158	5	16	21	-6
158	4	19	-17	-5
157	3	22	-18	2
158	0	17	-1	-1
157	0	15	-5	2
158	5	17	8	9
157	9	18	2	13
157	14	20	-9	16
158	5	19	5	8
157	-8	22	18	-8
158	-4	18	5	-11
158	-7	18	12	0
158	-1	17	12	-4
158	10	15	-9	-7
157	24	17	-4	-12
157	33	17	-13	-12
157	19	22	-34	-3
158	15	19	-24	0
157	19	23	-10	4
157	15	21	-1	4
158	8	17	21	9
158	12	17	24	6
157	15	17	21	9
157	3	24	23	10
158	-7	22	17	10
158	-7	22	25	7
157	-2	19	27	2
159	-3	18	27	4
157	-2	16	30	7
157	-4	19	36	10
157	-1	24	36	2
158	2	21	19	1
157	3	19	0	-1
157	5	20	-13	-6
158	5	24	0	-1
157	4	23	13	2
157	2	21	17	1
158	1	19	13	4
158	0	13	2	5
158	2	11	-9	-3
159	4	15	-11	-5
157	2	14	-22	0
158	3	19	-12	-3
157	-1	17	4	2
158	-3	15	-10	2
157	-4	14	-6	1
158	-5	13	-9	5
157	0	17	5	-1
158	10	22	13	6
158	21	19	-16	13
157	18	11	12	6
157	2	8	26	-5
157	-17	15	42	-13
157	-24	21	79	-22
158	-7	17	63	-18
157	14	22	16	-1
157	14	18	-15	8
157	24	13	0	10
157	31	15	1	8
157	38	17	-5	10
157	28	18	0	11
158	19	14	-7	10
157	19	17	-19	7
158	10	17	-24	5
157	5	18	-15	9
158	-2	17	4	7
158	1	15	23	11
158	-1	17	15	7
157	-4	17	-12	2
158	-1	19	-14	-4
158	-2	18	1	-8
158	0	18	29	-9
158	-1	18	50	-9
157	-2	19	31	-1
158	-3	13	52	8
157	-2	9	98	7
158	-2	10	24	7
157	1	14	-64	9
157	-4	22	5	-2
157	-21	15	72	-9
158	-29	19	36	-14
158	-19	22	10	-17
157	1	20	12	-6
158	17	19	-15	3
157	30	17	-23	0
157	37	17	-16	2
157	31	22	-15	1
158	26	23	3	3
157	21	18	-2	9
158	20	23	-16	3
158	9	25	-12	9
158	3	20	-15	5
158	3	23	-36	1
158	2	20	-39	4
158	10	18	-23	6
157	10	18	-21	2
158	4	21	0	-3
158	1	23	14	-5
158	0	17	24	-2
158	3	13	42	-4
158	11	18	17	-6
158	12	22	20	-5
158	4	18	82	-2
158	-5	17	22	10
158	-8	13	-53	10
157	-9	15	-10	9
157	-4	15	17	4
158	1	12	16	4
158	3	18	4	2
157	2	25	-8	-6
158	1	29	-5	-4
158	-1	23	9	-6
158	1	21	36	-8
157	3	21	47	-2
157	3	24	43	2
157	3	24	32	6
157	3	19	26	9
158	5	16	10	14
157	8	14	-8	4
158	12	21	-21	-3
158	12	26	-25	-3
157	5	19	-1	0
158	3	10	9	6
158	1	13	-2	4
158	8	15	-12	7
157	12	18	-21	4
157	3	19	-4	2
158	-5	19	9	4
157	-5	19	8	4
157	2	19	19	4
157	19	26	13	9
158	16	26	2	12
158	-26	20	-22	10
158	-32	14	-43	10
158	9	13	-43	-2
158	24	17	-10	-16
158	23	23	68	-12
158	19	19	43	-6
158	30	17	2	0
158	48	15	51	-1
157	35	19	31	5
157	29	23	29	10
157	23	21	21	3
157	11	10	2	1
157	0	9	14	2
157	-6	14	5	2
157	-8	11	29	-1
157	-5	17	46	-3
158	-1	18	78	-3
158	-1	16	36	-6
158	-4	14	-8	-9
157	-3	13	-8	-5
158	-1	17	0	0
159	-3	20	10	3
158	-7	19	-23	2
158	-21	17	-11	4
158	-29	19	22	6
158	-11	18	23	0
158	-6	15	-21	4
158	0	18	-28	7
158	7	18	-7	3
158	4	21	-5	-1
158	19	23	8	0
157	26	20	2	2
158	22	21	-3	0
158	21	18	2	2
157	19	17	-4	3
157	15	22	-2	6
158	12	19	16	8
158	7	20	21	4
157	5	20	12	-2
158	3	19	-19	-2
157	5	20	-24	4
158	-1	21	1	6
157	-4	20	8	10
157	-1	22	19	2
158	-3	17	13	-5
157	-4	20	5	-5
158	-1	22	-3	-8
158	0	15	-12	-6
158	-1	21	-16	4
157	-7	22	-48	19
158	-10	11	-55	31
158	3	11	0	32
157	11	13	31	17
157	9	9	9	-3
157	8	14	8	-30
158	8	15	48	-47
158	13	17	72	-43
157	22	18	52	-19
158	22	17	55	-12
157	12	19	42	-10
157	4	21	35	-3
157	1	22	39	-2
157	4	19	23	7
158	3	19	19	4
157	3	19	5	6
158	4	19	-6	9
158	2	17	-37	9
158	5	20	-62	12
158	3	19	-45	18
158	3	16	-6	17
158	2	19	7	16
157	4	19	14	18
158	7	18	26	12
158	11	19	34	14
157	9	16	37	9
158	3	19	19	6
159	5	21	41	4
158	3	17	37	-1
158	4	15	-2	-1
158	3	14	-14	-3
158	1	16	1	4
157	3	15	30	7
158	1	13	23	4
157	-4	14	12	2
157	-13	15	-5	2
158	-10	21	-20	2
157	-10	19	-13	0
158	-3	19	-10	-10
158	3	20	-24	-24
157	16	24	-23	-26
158	33	26	24	-15
158	39	25	39	-13
158	32	22	2	-19
157	13	19	5	-8
157	14	19	20	2
158	8	18	8	7
157	1	19	-1	8
158	4	18	-19	8
157	3	18	-1	12
158	8	22	4	6
157	3	19	-7	7
158	5	19	12	11
157	3	18	21	4
158	-1	17	18	2
158	0	18	-22	7
158	0	12	-33	10
157	4	18	-8	6
157	2	23	1	3
157	1	18	40	4
157	3	19	23	14
157	0	13	-22	26
158	-3	17	-18	29
157	0	13	3	29
157	0	15	39	28
158	-4	18	60	22
158	-1	19	56	8
157	-1	18	46	-4
157	-3	17	36	-8
158	5	19	10	-17
158	12	17	5	-25
157	12	20	18	-41
158	12	15	37	-53
158	6	14	23	-37
157	8	23	-60	-17
157	3	27	-64	-15
158	-22	27	-10	-4
157	-18	21	-10	8
157	1	17	-23	8
157	16	14	-18	10
158	26	14	2	4
157	26	15	-15	10
158	29	17	-31	5
157	20	23	-17	2
157	8	23	5	7
158	16	22	22	6
158	22	24	19	10
158	14	22	47	13
158	5	19	89	9
157	-2	15	75	8
157	1	17	53	9
157	-3	19	33	6
158	-2	21	1	10
157	3	24	-4	9
158	3	22	-26	7
157	3	15	-16	-2
157	3	19	-8	-5
158	4	19	-26	0
158	4	20	-24	0
157	3	15	-6	6
158	2	17	27	8
157	1	19	15	6
157	1	17	38	8
158	0	13	51	-4
157	-1	9	38	-12
158	-8	10	43	0
158	-14	9	8	-4
158	-6	15	12	-6
158	-4	14	2	-7
158	-4	15	-2	-2
158	6	17	8	-1
157	14	14	-1	2
158	26	15	1	9
158	24	22	-27	16
158	16	25	-25	20
157	12	22	-20	12
158	11	27	-20	10
158	11	22	-2	-2
157	5	21	12	-18
157	5	21	14	-23
158	7	19	-10	-21
158	5	17	-15	-5
158	7	18	19	10
157	6	19	42	20
158	3	18	12	26
157	2	18	13	22
157	2	18	34	14
157	0	18	40	11
158	2	17	38	3
158	3	20	-4	-7
157	4	23	-20	-6
158	3	19	-6	-15
158	0	16	-10	-15
156	-1	6	-31	-11
158	-2	9	-12	-16
157	1	21	2	-15
158	1	18	-19	-7
157	-1	16	0	0
158	1	21	15	-4
158	10	23	47	-1
158	19	19	52	3
157	7	19	27	-1
157	4	15	-1	5
158	11	17	-13	6
158	5	19	21	12
157	8	18	6	21
157	5	20	3	15
158	5	21	-9	25
158	7	18	-26	29
157	3	18	-28	10
158	3	19	0	-9
158	4	17	41	-24
158	5	23	2	-35
158	2	23	-4	-29
158	4	21	-5	-13
158	5	18	6	11
157	5	18	33	6
157	8	19	15	-5
158	7	15	19	-9
157	5	14	20	-18
157	5	19	10	-18
157	6	19	-2	1
157	5	19	-2	11
157	2	15	5	4
157	2	16	-6	5
157	8	21	-2	7
158	3	19	28	6
157	3	15	34	11
158	3	17	29	12
158	0	17	41	14
158	3	19	-12	11
158	3	19	-28	11
157	8	17	-24	17
158	4	19	-35	9
158	4	23	-27	-2
158	4	18	-11	-4
157	5	14	102	-18
158	3	19	170	-29
158	4	14	17	-17
158	9	14	-38	3
158	7	15	40	13
158	1	17	1	15
158	-2	17	6	15
157	1	15	2	10
157	-4	18	-4	3
158	8	22	13	4
158	20	21	0	6
158	8	19	9	7
158	-5	20	-23	16
158	-8	20	-35	26
157	-5	21	-33	22
158	-1	20	-19	15
158	7	19	14	12
158	13	19	28	4
158	10	22	16	0
157	-11	21	44	-5
158	-3	21	48	-6
157	18	17	-16	-12
157	21	17	-15	-17
157	26	16	-16	-16
158	17	14	-19	-12
158	29	17	-4	-5
157	28	17	-4	0
158	17	19	3	9
157	15	21	10	12
158	12	19	16	11
158	8	21	14	13
157	0	22	9	14
157	-3	17	17	16
157	0	12	42	19
158	1	15	40	21
157	-1	14	26	21
157	-3	16	59	8
158	-5	15	79	-10
158	-6	15	-22	-22
157	-5	16	-100	-37
157	2	15	-83	-41
158	6	23	-51	-43
158	3	22	-26	-30
158	1	18	-17	-16
157	2	21	12	-17
158	2	23	27	5
157	3	19	60	15
158	1	17	53	11
157	2	16	37	12
158	0	14	61	10
158	3	15	22	10
158	2	15	9	9
157	4	18	-18	0
157	5	25	-37	-5
157	5	25	0	2
159	5	28	2	4
158	5	24	1	3
157	5	12	-13	0
157	4	12	-14	-2
158	7	14	15	1
157	11	15	21	11
158	7	19	3	19
157	3	17	-3	20
158	1	13	-5	15
158	7	15	-19	11
157	11	18	7	9
159	11	19	36	7
158	11	17	47	5
157	9	20	29	8
158	6	22	-35	10
158	8	21	-75	9
158	6	20	-58	9
157	5	21	-56	2
158	3	13	9	-10
157	1	15	93	-23
157	5	23	48	-34
158	2	19	27	-39
157	0	15	87	-43
157	3	15	131	-24
157	5	17	122	0
157	4	23	75	14
157	4	22	24	27
158	5	20	-4	37
158	5	19	-16	40
158	6	18	-31	36
158	5	18	-26	32
158	1	19	-20	29
157	5	16	-13	24
158	5	16	-44	20
157	5	20	-69	-1
159	3	17	-28	-32
158	5	15	-23	-51
157	5	18	-32	-43
157	5	14	17	-26
158	4	12	43	-32
158	2	15	47	-22
158	7	16	23	-8
158	7	17	-37	-6
158	7	20	12	-1
158	6	25	15	0
157	4	22	-7	15
158	7	23	19	13
157	3	16	-6	14
159	3	14	-10	19
157	0	19	4	17
157	1	18	14	17
158	7	17	-4	4
158	9	17	-16	1
158	9	21	-22	9
157	10	21	-15	13
157	8	19	15	16
157	8	18	45	4
158	4	15	64	-7
158	0	17	26	-8
157	-3	21	1	-9
158	1	21	-2	-8
158	5	22	43	-7
157	-4	21	107	-7
157	1	18	63	-6
158	5	17	-3	9
158	16	17	-26	13
157	24	15	-65	3
157	18	17	-65	1
158	12	15	-14	3
157	8	18	5	8
157	11	24	19	9
158	1	22	11	11
158	1	21	10	8
158	1	22	9	13
157	4	19	-9	8
158	1	16	38	7
157	-3	11	85	13
158	1	18	57	11
157	4	19	5	6
157	3	15	18	-8
157	-1	15	-25	-9
157	2	14	-72	-5
158	2	17	-13	-4
157	3	15	-16	0
157	1	15	-11	0
158	0	15	17	0
157	6	14	39	3
157	5	17	15	5
157	9	21	6	10
158	7	23	33	14
157	7	21	15	9
158	10	22	20	8
157	4	19	12	6
157	5	13	-19	3
157	4	17	-77	-5
157	5	20	-83	-3
158	7	17	-24	-5
158	4	17	63	-13
157	6	14	58	-21
158	7	17	-23	-25
158	8	24	18	-23
158	8	17	8	-17
158	8	19	17	-8
158	6	22	53	-4
157	4	22	40	2
158	3	23	53	2
157	-1	19	38	8
157	1	18	29	13
157	3	20	-8	20
158	8	22	-45	16
158	10	21	-67	8
158	10	20	-34	15
157	10	18	10	16
157	6	18	24	17
157	5	24	41	23
157	7	24	18	24
158	9	23	-21	11
157	5	16	-21	-1
157	1	6	12	-11
158	0	11	49	-27
157	1	19	31	-15
158	1	17	-22	-17
158	3	18	78	-22
157	5	17	71	-10
157	6	17	-37	-10
158	5	19	-13	-10
158	5	18	-29	-19
157	4	19	-15	-17
157	7	24	-43	-17
158	10	27	-28	-31
157	7	22	86	-30
158	5	20	149	-23
157	4	16	117	-7
158	8	18	12	11
158	8	17	14	33
157	3	14	6	38
157	3	16	-2	36
157	5	15	2	37
157	5	16	-16	33
158	5	18	1	37
157	7	17	13	28
157	7	17	16	11
157	8	22	-19	-4
157	5	17	-32	-14
158	3	11	-51	-20
158	3	11	-41	-9
157	3	18	-27	3
157	3	22	-30	2
157	3	17	-12	6
158	3	18	-25	4
158	5	19	-25	1
157	2	15	-23	3
158	1	8	32	4
157	3	15	-4	9
158	7	21	-23	6
158	7	22	36	7
158	5	21	-9	11
158	4	17	32	6
157	2	17	21	0
158	4	18	11	2
157	7	21	20	4
158	7	17	-8	6
158	9	16	19	4
157	1	19	17	0
157	-20	19	40	7
158	-40	17	40	5
157	-28	14	27	3
158	-6	16	32	-3
157	5	18	45	-8
158	30	24	10	-10
158	33	22	-6	-16
156	31	22	15	-19
158	29	20	-21	-17
157	22	16	-17	-6
158	21	17	7	0
157	34	17	2	0
157	36	19	5	9
157	19	18	4	4
158	13	19	13	10
157	10	15	15	10
158	9	17	13	8
158	0	20	12	11
158	-5	18	22	7
158	-3	21	25	7
157	-4	19	17	2
157	-4	22	6	-2
157	-7	21	-16	-2
158	-5	17	-18	7
158	-5	17	-23	9
158	-3	19	-18	15
158	-4	17	3	18
158	-1	19	-13	16
158	0	14	-11	18
157	-3	13	53	0
157	0	19	72	-11
158	-5	12	8	-13
157	-2	10	-29	-18
158	3	17	-54	-24
157	5	16	-68	-36
157	3	17	-66	-38
158	4	21	-40	-25
157	3	17	24	-3
158	3	19	63	4
158	7	25	82	15
158	6	26	93	17
157	8	21	79	20
157	4	17	57	17
158	2	18	51	-7
158	2	17	46	-13
157	5	15	60	-21
157	7	19	16	-29
157	7	22	-31	-21
158	10	20	-15	10
158	12	21	-20	22
157	5	18	-4	20
158	4	13	-2	19
158	6	21	1	17
158	5	21	27	12
157	4	19	-6	4
157	5	19	-26	3
158	6	17	38	4
159	9	16	69	3
158	8	18	22	-7
158	9	19	-23	-10
157	7	14	-49	-14
157	6	18	-51	-1
157	8	23	-9	6
158	5	18	-4	9
157	3	17	-10	18
158	5	19	-4	16
157	5	21	0	21
157	6	20	5	18
158	5	19	-17	21
157	5	15	-24	14
158	6	15	-15	6
157	7	19	15	7
158	8	17	19	3
158	8	14	-7	-4
158	7	17	-33	-3
158	3	16	-41	0
158	-2	15	-19	4
157	-14	14	24	7
158	-39	17	77	-5
157	-24	22	66	-17
157	0	26	112	-27
157	1	15	107	-30
158	7	4	-2	-16
158	13	15	6	-8
158	43	25	-54	4
157	48	25	-65	4
158	23	27	-22	0
158	20	22	-54	5
157	34	19	7	-5
157	38	18	42	-12
157	16	19	25	-15
157	3	21	46	-16
157	4	18	55	-6
158	-3	17	-14	10
157	-3	21	-35	21
158	-4	17	27	18
158	-4	21	14	14
158	-6	17	-51	18
157	-4	7	-58	22
158	-3	15	5	21
158	-5	17	49	15
158	-5	15	20	4
158	-5	15	17	-3
158	-3	15	82	-8
157	2	19	37	-18
157	10	22	5	-25
157	11	19	21	-26
157	4	17	4	-20
157	3	17	14	0
157	1	18	8	17
157	3	17	15	24
158	7	15	19	25
157	3	19	15	23
158	4	21	-3	20
157	3	15	-51	12
158	3	16	-80	9
158	3	20	-68	0
157	0	23	-32	-8
157	3	19	8	-11
158	-1	15	41	-15
158	1	18	61	-19
157	5	23	79	-22
158	10	28	51	-10
158	11	24	7	3
157	1	21	-23	11
158	-1	16	-27	13
158	15	17	-13	22
158	18	22	-10	20
158	10	21	-7	17
157	1	21	3	19
158	1	17	33	7
157	1	19	33	4
158	2	19	47	-11
158	2	18	66	-27
157	0	19	45	-32
158	4	19	17	-25
158	3	22	-6	-8
157	7	19	-42	-1
158	3	14	-46	4
157	5	14	-20	6
158	7	15	-6	6
158	8	18	15	9
158	8	17	48	9
158	5	18	69	12
158	5	19	41	12
158	7	17	6	11
157	8	17	16	11
159	7	13	1	11
158	6	18	0	10
157	8	21	15	7
158	-2	14	6	14
158	-12	13	-6	19
158	-6	13	-33	19
158	-3	15	-19	18
158	0	17	-14	15
157	7	15	-15	4
158	13	18	6	-4
158	26	22	-6	-11
158	27	24	-10	-28
158	22	23	-18	-34
158	20	22	5	-35
158	16	21	43	-33
158	17	19	24	-21
158	14	21	2	-5
157	8	18	-1	6
157	1	17	14	10
158	1	18	37	26
158	0	18	28	40
157	0	17	-1	46
159	-3	17	19	48
157	-1	12	53	47
157	-1	12	-17	30
158	-3	16	-19	-3
157	1	16	14	-34
158	3	20	-62	-43
157	8	22	-54	-61
158	11	21	4	-77
159	10	23	63	-59
158	5	17	61	-38
157	2	15	46	-20
157	3	18	52	-4
157	4	12	3	10
157	5	14	2	13
158	4	16	-10	15
157	5	17	-16	20
157	5	18	0	14
157	3	16	-9	13
159	3	14	-7	10
158	0	14	2	4
158	2	18	5	6
157	2	18	3	9
157	0	15	-4	7
157	1	21	-8	14
157	5	22	8	15
158	4	18	27	12
158	3	18	9	17
157	5	21	2	15
157	8	18	9	11
157	14	20	9	11
157	17	21	15	9
157	7	18	12	9
158	0	19	6	9
157	-2	20	6	6
158	-5	18	5	7
157	-1	20	4	7
157	4	19	6	8
157	3	16	4	6
157	-3	19	3	2
157	0	16	15	4
157	-2	18	21	2
157	-5	19	25	-3
158	2	19	18	-3
157	17	25	-8	-4
157	22	21	-5	-8
158	8	19	22	-9
158	1	18	13	-6
158	6	17	-3	-7
158	5	19	-13	-10
158	7	18	5	-7
157	11	19	22	-3
157	10	19	4	-4
157	7	20	3	1
158	3	17	-4	7
157	4	19	1	1
157	5	18	5	6
158	6	14	12	6
157	3	14	29	7
158	1	14	20	6
157	8	11	-6	5
157	17	13	-7	6
158	15	19	22	9
157	5	17	18	14
157	-4	20	8	10
157	-1	19	10	0
158	1	21	17	-12
158	4	25	-10	-4
158	6	22	-43	4
157	7	11	-31	-1
158	4	10	-16	9
157	4	17	21	10
158	5	15	27	-5
158	2	19	14	-6
158	5	24	22	-6
157	8	22	-15	-20
159	5	24	-20	-33
158	3	21	-3	-40
157	4	20	39	-26
158	4	22	93	2
157	4	17	75	8
157	5	16	38	23
158	5	18	5	25
158	5	19	3	20
158	5	15	39	7
158	7	17	40	-17
157	5	17	55	-24
158	4	16	22	-16
158	6	19	-63	-2
157	4	17	-71	-6
158	6	17	-43	-1
158	5	17	-26	9
158	7	20	-43	8
158	8	19	-54	9
157	6	20	-49	10
158	5	17	10	5
157	5	19	32	-9
158	3	18	38	-11
157	3	14	103	-10
157	6	17	43	-8
157	3	14	43	3
158	4	19	13	6
158	4	20	-5	5
157	2	19	47	15
158	5	20	-8	22
158	7	21	24	21
157	5	20	-2	15
157	6	14	-31	12
157	6	18	-18	9
157	6	17	-13	9
158	5	18	2	8
157	7	16	-4	10
158	4	18	27	14
157	5	22	32	13
158	3	22	14	7
158	4	21	-5	2
157	3	14	-26	0
158	3	19	-53	2
157	5	22	-30	6
158	4	18	-7	4
158	5	21	-16	-4
157	4	19	-19	-4
158	4	19	8	0
157	5	15	93	-5
158	4	14	78	-5
157	5	17	28	3
157	5	16	29	2
158	4	19	7	-4
157	10	17	18	-1
159	14	14	18	0
157	14	18	0	-5
158	16	15	2	-2
158	12	17	5	7
157	-2	17	6	11
158	-4	15	9	9
157	-7	19	13	6
158	-4	21	13	0
157	7	24	13	2
158	10	17	-7	11
158	5	6	-20	12
157	3	14	-11	11
158	7	19	-2	5
158	7	19	-2	-7
159	7	20	-10	-10
157	5	16	-23	-15
159	5	15	-30	-1
158	5	16	-6	0
157	1	17	19	-7
158	1	19	32	-3
158	5	26	57	2
157	5	22	51	9
157	4	19	22	3
157	5	22	14	0
157	5	20	7	-17
158	1	20	2	-35
158	1	20	4	-54
157	4	18	16	-47
157	-4	16	18	-18
158	-8	21	8	0
158	-6	15	4	14
158	-4	15	1	15
157	7	19	-22	24
157	11	17	-16	26
158	22	19	27	17
158	31	22	32	12
158	23	22	25	-4
158	18	25	3	-6
158	15	21	-8	-10
157	12	22	-6	-4
158	7	22	-23	16
157	5	15	-8	17
158	4	15	4	17
157	4	14	31	16
158	2	15	34	21
158	-2	17	-12	21
158	-4	17	-4	18
157	-7	17	33	12
158	-12	15	-22	1
157	-6	15	-100	3
159	3	19	-94	3
158	18	19	-63	-3
158	21	17	-6	-2
157	7	19	39	4
158	1	22	91	11
157	4	16	70	7
158	0	17	44	6
158	3	15	72	1
158	1	15	19	-7
158	4	21	40	-15
158	7	21	15	-17
158	0	20	-9	-12
157	3	18	15	-10
158	5	14	31	-1
157	8	17	40	5
157	5	21	-3	10
157	5	16	7	10
157	1	15	-6	5
157	2	19	-8	4
157	5	18	-10	0
158	4	19	13	-2
157	5	15	49	6
157	5	21	17	6
158	5	20	-17	4
158	5	19	-39	10
158	5	21	-18	9
157	5	22	-15	2
158	8	24	-7	6
158	8	22	13	0
157	5	22	27	-15
157	7	19	77	-12
158	8	18	79	-27
157	3	17	19	-28
157	5	17	-10	-17
158	4	19	-18	-7
158	8	20	-20	8
158	7	23	-43	-1
159	5	19	-41	3
158	2	9	28	13
157	5	13	60	2
158	8	17	79	-1
158	5	18	79	-7
157	2	22	19	-14
158	3	15	6	-14
158	5	22	-9	-10
157	5	22	-49	0
158	3	17	-32	16
157	6	17	-38	20
157	5	17	-32	20
158	7	19	-35	13
158	10	18	-27	0
157	5	22	4	-11
158	3	18	35	-13
157	1	22	71	1
158	1	19	71	7
157	2	21	-17	6
157	7	20	-67	19
158	8	17	0	14
157	5	18	-5	9
158	8	18	-12	9
158	11	19	-13	12
157	8	19	-18	16
157	5	19	42	6
158	4	17	28	9
157	4	19	10	17
158	4	20	5	20
158	7	16	0	14
157	6	15	5	7
158	7	22	0	6
157	8	19	5	0
158	5	17	-2	-4
158	6	16	0	-6
157	10	15	1	-10
158	15	15	13	-16
158	11	9	1	-11
158	3	12	-34	-12
158	-2	14	-46	-5
157	-6	16	-45	4
158	-5	19	-42	4
158	4	15	-19	10
158	4	12	78	10
157	3	15	202	-2
158	6	15	191	-7
158	6	21	98	1
157	5	25	48	-2
158	7	21	7	-2
157	1	19	20	5
158	2	21	15	-6
157	4	22	2	-15
158	3	23	3	-19
158	8	19	-16	-15
157	7	14	-44	-4
157	3	14	-59	-9
158	1	21	-60	-4
158	0	19	-63	10
157	0	22	-32	22
157	1	17	-22	26
158	4	12	-3	28
158	5	18	8	20
158	8	20	20	13
157	10	21	40	10
157	13	24	23	2
157	10	21	9	-6
158	6	19	5	-21
157	7	16	5	-32
157	4	16	5	-32
158	7	19	5	-26
158	6	18	5	-21
158	4	16	10	-14
158	5	18	6	-9
158	8	15	6	-2
158	6	19	-2	0
158	6	19	-11	8
158	7	15	4	19
157	5	17	42	18
158	3	19	78	23
157	3	22	34	22
157	3	23	5	17
158	3	21	-4	14
158	6	22	-55	11
157	5	20	8	1
157	5	10	67	-12
158	2	10	18	-19
158	1	17	29	-22
159	1	13	4	-7
157	-1	19	-37	8
157	-1	18	-14	8
158	0	17	-19	9
158	-4	17	-16	8
157	-4	11	-3	5
157	-4	17	2	7
157	-1	19	-6	11
158	9	19	-2	16
157	21	24	0	17
158	22	25	10	20
157	9	19	18	24
157	6	17	5	12
158	3	17	25	0
157	8	20	51	-1
158	9	19	33	-4
157	6	19	-5	-10
158	5	19	33	-15
158	3	17	37	-20
157	5	15	-16	-5
157	4	20	-19	10
158	4	19	-16	4
158	3	15	14	2
157	6	21	13	-7
158	9	19	6	-7
158	10	22	-2	-8
157	8	20	-10	-5
158	5	18	1	-4
157	7	20	-9	-6
158	5	17	2	1
158	3	16	2	2
158	3	17	-5	6
159	3	20	-19	4
158	2	15	-33	9
158	6	17	-33	10
157	8	16	-31	2
158	5	17	4	6
158	4	19	56	6
157	1	15	94	2
158	3	17	109	1
157	5	22	72	-1
158	5	23	31	-5
157	5	21	25	4
158	4	12	-8	4
157	2	15	-16	2
158	1	19	-2	2
157	4	16	21	0
158	3	16	29	6
157	5	22	-23	-1
157	5	19	-6	-4
157	3	16	-24	2
157	3	19	-42	4
158	5	19	-20	7
158	5	19	-23	9
158	5	21	-6	10
158	4	18	-12	9
157	4	19	0	22
157	4	18	12	32
157	9	19	26	24
158	16	19	22	11
158	13	17	-5	-6
158	3	16	28	-9
157	-1	16	96	-25
158	-5	17	75	-39
158	-2	21	-24	-38
157	5	22	-41	-43
158	7	18	-6	-45
158	5	18	24	-35
157	1	16	36	-20
157	0	15	9	-1
158	3	26	0	13
158	7	24	10	11
158	2	19	8	17
157	2	18	5	15
158	7	12	13	18
157	8	17	-3	13
158	7	20	-9	12
157	7	17	-4	18
157	8	18	8	11
157	10	15	10	12
157	11	9	2	9
157	9	14	18	13
158	7	16	16	11
158	3	13	7	15
158	3	17	-9	21
157	5	13	-15	17
157	3	16	-20	16
158	2	21	-26	10
158	3	18	-17	9
157	2	16	-12	12
158	1	20	1	4
158	1	23	22	-11
158	2	23	42	-8
157	5	19	48	-2
157	6	16	21	-9
158	8	15	-3	-18
159	13	22	-17	-17
158	10	23	-28	-9
158	6	23	0	-2
158	7	21	14	2
158	7	18	-2	2
157	4	19	0	1
157	2	17	5	6
158	3	19	32	0
158	1	17	90	7
158	1	16	111	10
157	4	17	43	6
157	4	18	-11	10
158	4	17	7	4
158	7	19	4	12
158	8	21	11	8
157	7	21	-6	9
158	8	22	-8	7
157	6	19	-1	2
157	8	14	-22	-7
157	5	14	-32	-25
157	5	16	-66	-32
157	7	14	-38	-30
157	5	14	0	-8
157	4	15	14	2
158	8	19	52	1
158	6	15	56	6
158	4	17	14	7
158	4	21	-47	10
158	3	14	-49	6
158	2	14	-18	6
158	3	18	-38	12
158	8	26	-10	12
157	8	24	34	8
158	7	20	52	12
157	7	20	57	8
157	5	20	-4	14
158	7	21	-5	10
158	6	18	67	-3
157	5	18	55	-13
158	4	19	-9	-31
157	4	22	10	-31
157	4	20	2	-21
157	2	18	-29	-7
157	4	22	16	-5
158	4	19	40	1
158	6	19	17	7
157	7	20	-25	7
158	4	23	0	14
157	6	21	31	3
157	3	19	42	1
158	1	18	31	0
158	1	15	3	0
157	2	17	32	1
157	3	13	49	-5
157	2	13	54	-4
157	4	16	18	0
157	8	16	-28	13
158	14	14	-16	7
158	4	12	-36	3
158	-9	16	-29	11
158	-13	19	-46	12
158	-14	19	-29	8
157	-8	19	31	10
158	2	19	1	8
158	18	22	-5	12
158	25	25	-2	10
157	12	23	10	5
158	7	23	11	1
158	10	21	0	-10
158	7	20	-3	-10
158	8	18	-13	-7
158	11	23	-5	-6
158	10	24	-3	-8
158	7	18	4	-2
157	7	19	11	1
158	7	17	22	6
157	7	17	19	4
158	5	17	6	9
158	3	13	10	7
158	4	16	9	8
157	3	15	31	11
158	5	16	70	0
158	4	16	64	2
158	3	12	5	6
158	5	14	-3	8
158	8	17	-3	5
157	7	17	-10	-3
158	5	17	6	6
157	2	18	12	8
158	3	20	36	6
157	7	23	18	3
158	5	20	-10	-2
157	4	16	-27	-6
158	7	17	-23	-3
157	8	17	10	-4
158	5	15	20	-7
158	3	15	12	-10
158	7	17	0	-13
158	0	14	12	-14
158	-12	18	15	-14
157	-11	18	15	-4
158	-4	14	-11	5
157	-1	8	-11	9
158	1	10	32	8
157	5	14	-13	10
157	12	14	-23	13
158	24	20	19	12
158	18	22	-3	8
158	13	22	14	-4
157	15	18	18	-15
157	17	19	4	-21
157	20	21	-18	-14
157	14	21	-61	4
158	5	22	-29	10
157	5	18	-13	13
158	4	19	-36	18
157	1	16	-28	26
158	0	17	18	21
158	-1	17	49	10
157	0	18	92	-2
157	-1	20	116	-15
158	1	19	71	-18
158	1	22	85	-16
157	3	20	89	-13
157	2	19	8	-19
158	1	19	-37	-16
158	0	15	-58	-6
158	2	18	-60	-2
158	4	19	-20	9
158	3	18	-18	12
157	1	17	-24	10
158	1	14	-14	9
157	1	15	-1	4
157	1	18	21	0
157	9	22	17	-3
158	6	23	6	-6
157	2	21	0	-3
158	2	20	13	2
157	2	17	-3	10
158	3	21	5	12
157	3	19	35	16
157	4	16	54	12
157	5	15	60	3
157	4	17	44	1
157	3	16	42	-4
157	7	16	-14	-13
158	9	19	-49	-14
157	10	18	-61	-7
158	10	19	-40	-5
158	7	20	24	5
157	6	18	10	10
158	7	20	-28	10
158	7	22	-18	8
158	7	20	-1	4
157	5	16	8	11
157	4	16	32	9
157	4	18	48	10
157	3	19	19	13
158	3	19	7	11
158	7	21	56	13
158	9	21	56	15
157	8	20	0	9
158	4	22	-49	-2
158	6	19	-33	-3
158	5	14	28	-7
157	7	17	74	-7
158	8	22	-31	-6
158	4	21	-56	-5
158	5	15	-1	0
157	8	9	-59	-1
158	15	14	-14	2
158	21	13	-4	-1
157	12	15	32	4
158	1	14	110	8
157	-4	18	95	3
157	-11	23	25	14
158	-9	21	-21	15
158	1	21	13	6
158	6	23	12	0
157	2	25	2	-7
158	14	25	-25	-15
157	24	25	-9	-24
157	12	22	13	-16
157	4	17	-7	0
159	8	11	-19	6
159	8	17	-41	9
158	8	18	2	5
157	7	19	10	1
157	5	22	-5	-10
158	3	17	7	-22
157	3	15	6	-17
157	4	14	11	-6
157	4	18	5	-8
157	1	19	11	-6
158	0	15	22	7
157	1	14	23	9
158	1	16	20	11
158	3	22	5	15
157	4	21	8	7
158	4	22	27	2
159	3	17	39	13
157	2	14	21	13
157	4	14	-5	5
157	4	18	2	3
158	8	19	4	4
158	5	21	-1	3
157	3	24	-3	4
157	3	21	0	14
157	3	21	-5	23
158	7	21	-26	26
158	4	16	-36	18
157	3	15	-37	11
158	5	17	26	7
158	7	15	82	-2
158	4	14	64	-12
158	8	23	12	-20
157	9	20	-7	-32
157	9	22	15	-41
157	5	21	15	-45
158	3	17	20	-44
157	4	20	15	-28
157	2	21	16	-1
158	2	19	21	1
157	0	19	18	2
158	1	18	20	-1
157	4	17	10	7
157	8	20	-2	15
157	10	17	-18	19
158	8	17	-14	25
157	5	22	2	19
157	5	18	10	21
157	3	14	19	19
157	0	13	19	20
158	4	16	8	18
158	7	20	-27	13
157	4	22	-40	1
158	5	22	-3	-4
157	7	24	12	0
158	7	24	14	-4
158	7	23	43	-3
158	5	17	64	2
158	5	10	67	4
157	5	10	45	-9
158	2	13	-13	-9
157	4	11	-48	-10
158	6	16	-31	-8
157	6	15	-40	4
158	6	13	-58	4
158	4	14	-44	6
157	3	12	-55	2
157	1	13	-18	9
158	2	13	6	9
158	3	14	2	7
158	7	19	80	10
157	8	15	58	13
158	7	16	5	14
158	6	21	37	20
157	10	21	28	12
158	9	22	-1	-5
158	11	25	23	-13
158	11	25	77	-23
157	5	26	37	-14
158	4	18	62	-13
157	1	13	64	-19
157	1	15	-9	-12
157	3	17	-29	15
158	5	17	-30	26
158	4	16	1	22
157	4	17	-15	23
157	3	18	-5	18
158	0	21	-19	0
157	4	18	-36	-10
157	6	20	-11	-6
157	7	17	-12	-21
158	5	19	4	-28
158	5	20	5	-24
159	3	14	12	-15
157	3	18	12	-9
158	5	16	-2	-2
157	3	14	-23	1
157	5	17	-19	-6
157	9	19	22	-14
158	7	19	17	-16
157	7	17	12	0
158	8	16	48	4
158	9	17	72	4
158	9	20	69	12
158	5	17	27	12
157	3	18	-43	16
157	3	18	-51	19
158	3	17	-16	14
158	9	16	27	16
157	11	17	64	17
157	15	16	47	15
158	13	19	2	18
158	5	20	-5	13
157	0	20	22	8
158	-4	19	17	11
158	-5	21	16	7
158	1	23	-42	-2
158	0	19	-55	0
158	-2	19	-11	2
157	-1	19	3	4
158	4	19	19	3
158	2	19	6	-8
157	7	21	10	-7
157	6	16	0	1
158	5	13	-11	-2
157	7	17	0	-1
157	7	17	-1	-5
157	5	18	3	-5
158	7	19	15	-5
157	2	18	31	-2
158	4	22	43	3
157	10	21	24	2
157	7	16	-19	3
157	12	19	-16	-1
157	8	19	22	-2
157	3	17	-12	0
157	5	19	-28	2
157	3	21	5	3
158	1	19	-22	4
158	5	21	14	6
158	5	17	81	7
158	7	16	53	2
158	5	23	-40	-5
158	6	22	-48	-3
158	3	21	-3	5
158	3	11	-14	14
158	5	9	-12	11
158	5	14	15	5
158	4	15	85	4
157	4	18	107	-3
158	7	25	43	-4
158	6	21	25	1
158	5	18	3	-9
158	8	21	-38	-17
158	5	21	-42	2
158	1	18	-43	2
158	3	19	8	-9
157	5	18	53	-5
158	5	22	57	-18
157	9	22	-3	-22
158	9	18	-26	-14
158	6	19	-13	-6
158	4	16	-17	0
157	1	14	0	2
158	-2	15	-25	11
157	-5	12	-3	22
157	-3	11	43	19
158	1	15	70	19
158	5	21	12	20
158	17	23	-15	9
158	29	22	13	7
158	21	17	-16	-4
158	9	17	20	0
158	8	15	42	0
158	4	14	66	-10
157	4	17	46	-5
158	1	17	0	-11
157	2	20	-1	-9
158	5	20	-18	2
158	1	19	-43	2
158	-2	19	-31	0
157	1	19	2	-2
158	-1	21	14	-5
158	3	19	19	2
157	7	21	7	8
157	7	16	25	4
157	5	18	2	10
158	4	22	-18	18
157	5	22	-9	21
158	4	19	-26	15
158	5	21	-14	6
158	8	18	10	-8
158	7	15	15	-26
158	6	17	-41	-34
157	7	20	-25	-29
158	4	17	37	-22
158	2	17	33	-3
158	4	17	66	8
158	5	18	46	14
158	3	17	27	13
158	3	19	24	11
158	3	20	-17	13
158	6	21	-10	10
158	5	22	0	13
157	5	19	26	6
157	3	18	49	7
157	4	15	14	4
158	3	12	-7	-2
158	1	17	-34	4
158	3	17	-35	6
157	4	19	-18	2
157	3	19	-26	1
158	5	22	20	10
157	6	22	26	9
158	4	19	-24	8
157	3	15	5	11
157	3	12	15	3
157	13	15	-9	0
157	14	15	-11	1
158	5	18	-5	-4
158	0	15	14	-6
158	-3	17	46	-5
158	-3	22	112	-6
157	3	23	85	-6
157	5	20	0	2
158	4	19	1	9
157	3	15	-8	11
158	4	9	-10	9
157	4	15	-8	6
158	5	15	-18	12
157	3	18	0	7
157	4	16	-7	-1
157	5	17	-5	-5
157	5	19	6	-4
158	5	18	13	-4
158	4	20	6	-12
158	4	20	-6	-15
158	1	18	-10	-9
158	4	16	-18	2
158	4	19	16	1
158	9	15	50	3
158	10	21	36	2
159	11	25	14	-4
157	8	22	19	-2
159	7	22	-15	7
158	12	17	-25	11
158	7	19	9	10
157	8	20	14	11
157	3	18	30	10
157	2	18	12	8
157	5	18	13	4
157	5	19	22	0
158	10	23	17	-10
158	10	23	23	-26
157	7	19	-11	-31
158	5	17	-33	-29
158	1	19	-8	-26
158	2	19	15	-7
157	5	20	8	4
158	4	21	-3	7
158	4	18	-25	14
157	2	19	-17	9
157	3	17	4	3
158	1	15	26	4
158	2	16	32	15
158	4	13	30	12
158	3	14	36	6
157	3	20	-21	2
158	2	21	-56	3
157	5	17	-43	5
157	4	15	-45	8
158	5	17	-24	13
157	8	17	-13	8
158	5	13	23	7
158	5	14	58	7
157	9	18	30	7
158	8	18	22	3
158	10	21	48	6
158	10	21	85	12
157	8	19	52	15
158	4	17	9	13
157	1	10	27	16
158	3	13	1	16
158	7	18	2	-5
158	5	17	14	-13
157	3	19	17	-4
157	5	22	23	0
158	4	21	28	-8
158	2	16	36	-9
157	3	12	7	-12
157	7	15	-13	-9
158	8	19	-31	1
157	5	17	-40	4
158	6	17	-19	1
158	5	18	1	-5
158	1	18	6	-11
157	3	22	5	-17
157	4	23	6	-22
157	5	18	9	1
158	2	15	8	15
158	0	11	-9	10
157	2	18	-17	19
158	7	21	-32	20
157	6	18	-61	16
158	5	26	-73	12
157	6	23	-66	19
158	8	21	-42	21
158	9	21	41	4
157	7	18	116	-6
157	7	16	117	-19
157	8	20	98	-19
158	8	21	42	-12
159	3	19	45	-11
157	5	19	27	-18
158	8	17	25	-25
158	7	17	34	-25
157	4	15	7	-21
157	5	16	37	-10
157	5	19	5	4
157	4	23	-1	9
157	6	22	-8	11
158	7	18	0	16
158	4	18	16	17
158	4	19	-3	16
158	8	18	0	18
158	5	21	-8	16
158	5	19	4	11
157	7	17	-15	9
157	7	17	-42	8
158	7	14	-37	4
157	1	15	-14	-1
157	3	15	-10	-6
157	6	15	-6	-10
159	1	18	2	-1
157	0	17	-2	0
158	0	18	5	0
158	2	18	1	6
157	2	18	22	6
157	6	20	10	6
158	13	17	1	5
158	8	18	35	5
157	0	16	52	6
157	2	19	37	7
158	-4	19	-16	3
158	-5	17	-66	2
158	1	19	-26	4
157	3	22	21	4
157	12	24	17	2
157	24	17	-1	0
157	17	15	-20	4
158	7	17	30	5
158	3	18	48	-2
157	5	18	43	2
158	4	18	51	-6
157	5	21	6	-14
157	3	18	-8	-4
158	4	17	-5	6
158	5	19	-8	13
158	7	23	10	4
158	5	19	17	3
157	5	15	15	4
158	3	17	18	-4
158	1	14	16	-10
157	3	13	5	-9
158	6	18	-9	-13
158	8	18	-36	-10
157	6	19	-46	-7
157	5	22	-23	-5
158	1	18	-17	4
158	2	16	1	3
157	4	15	8	7
157	3	17	-2	12
157	3	18	40	9
158	4	19	69	13
158	6	22	-16	11
158	7	22	-42	5
158	5	17	55	1
157	4	18	77	-3
157	5	23	53	0
157	8	20	41	-6
157	3	22	18	-4
157	5	23	17	-2
158	5	22	19	-3
158	1	17	30	13
158	3	12	48	11
157	3	17	29	11
157	4	17	-4	13
157	6	16	-8	13
158	3	22	14	18
157	6	20	0	21
157	6	19	-41	12
158	8	18	-84	-15
157	8	18	-62	-37
158	8	23	-12	-50
157	10	21	-8	-44
158	4	15	-19	-30
158	4	17	-29	-22
157	5	16	11	-14
157	5	19	-2	-1
157	5	19	-15	10
158	4	18	43	13
158	5	18	57	10
157	3	19	54	9
158	2	17	31	11
157	2	17	-12	15
158	3	19	-13	17
157	4	16	22	18
158	4	17	29	17
158	5	17	26	15
157	4	16	3	15
157	5	18	-23	11
157	6	17	-7	18
158	5	19	0	15
157	6	19	-11	12
158	5	19	-6	12
157	6	21	-6	10
158	5	22	10	7
158	5	16	42	-3
157	3	12	54	-4
158	5	13	49	-4
157	5	17	55	-7
157	7	17	61	-12
157	8	17	-31	-12
157	9	16	-96	-11
158	6	21	-28	-7
158	5	19	7	-2
158	8	18	2	0
158	3	21	-19	7
158	8	17	-36	8
158	12	19	22	11
157	11	15	121	13
157	3	15	92	8
158	-3	18	8	-1
157	-6	19	21	-5
158	-6	19	3	-7
157	5	17	4	-9
157	10	21	12	-7
157	7	21	-13	3
158	3	19	-22	3
157	4	22	-51	-5
158	4	21	-12	-12
158	7	19	35	-7
157	9	19	8	-2
158	6	19	6	-5
157	4	21	4	6
158	2	19	4	9
157	8	19	-20	17
158	4	15	-56	17
157	7	13	-4	13
157	6	16	12	15
157	3	15	17	12
158	3	15	32	4
157	4	19	8	-6
157	4	17	14	-9
158	8	21	4	-17
157	9	16	0	-28
157	4	13	1	-30
157	4	18	13	-5
157	9	15	20	10
157	7	21	21	4
158	7	22	32	6
157	5	17	30	4
158	6	18	34	8
158	5	17	30	0
158	4	17	19	1
158	7	20	-8	-5
158	5	19	-8	-15
158	4	17	-28	-8
158	3	22	-54	-4
158	2	19	-62	-1
158	-1	13	-33	4
158	1	18	12	5
158	5	21	-38	7
157	6	22	-21	6
157	3	19	41	8
158	1	19	74	9
157	4	20	107	10
158	5	17	59	19
157	7	21	49	14
157	7	22	37	7
157	4	19	-6	4
157	6	17	-11	6
158	5	19	-4	4
157	5	16	6	4
157	8	17	-10	4
158	7	21	-23	10
157	4	17	-17	24
157	1	17	32	24
157	0	11	-2	25
158	3	14	-57	23
157	5	21	18	27
157	3	18	21	33
158	3	15	18	21
158	4	19	31	-2
157	8	25	19	-40
158	10	21	45	-60
157	8	16	28	-63
157	6	15	16	-57
158	8	17	-3	-45
158	5	19	-5	-38
158	4	18	-2	-25
158	4	21	-10	-15
158	5	16	-2	-9
157	4	16	8	-5
158	5	21	20	8
158	6	17	15	12
158	3	17	20	15
157	4	21	16	19
157	5	18	4	19
158	5	17	-14	18
158	5	18	-49	18
157	5	17	-29	18
158	5	15	30	20
158	3	18	17	23
157	5	21	13	22
158	4	15	20	16
157	2	15	-20	18
157	5	12	-39	17
157	5	13	-19	6
157	5	15	23	-8
157	5	17	44	-12
158	3	23	19	-9
158	2	21	5	-9
158	3	19	19	-4
157	5	19	0	2
157	11	19	15	-3
158	15	19	28	2
158	11	16	19	2
158	8	18	21	2
157	8	19	-1	8
158	5	19	-3	8
157	4	19	-17	6
157	4	21	3	-5
157	2	16	15	-8
157	5	17	-4	-2
158	9	21	-1	-4
158	7	20	6	-2
157	5	21	3	2
158	4	17	-15	6
157	2	15	3	8
157	3	19	3	7
157	3	14	6	6
157	4	15	25	7
158	4	22	29	-5
157	5	21	40	-11
158	3	21	27	-7
158	5	21	-12	-5
158	7	21	-19	-5
158	3	18	27	-4
158	3	22	42	-2
157	3	24	-15	-1
158	5	26	-43	-3
158	5	19	14	0
158	4	18	15	7
157	8	19	17	2
157	9	16	29	4
157	7	21	5	11
158	7	20	-9	13
157	5	17	-37	16
158	5	15	-20	20
157	5	17	-8	20
157	4	21	-12	10
157	4	19	8	6
157	5	15	32	-1
157	5	9	24	5
157	5	14	-39	23
157	5	14	-51	18
158	5	19	-40	-1
158	6	24	-7	-17
158	7	23	55	-30
157	0	15	27	-39
158	3	12	52	-41
158	3	16	124	-21
158	3	12	135	-13
158	2	11	111	-16
157	0	17	31	-9
157	5	19	25	-1
157	4	17	-9	3
158	7	17	-32	2
158	7	18	-11	-2
157	3	19	-16	-1
157	1	17	-23	2
158	-1	22	-43	-8
158	-1	22	0	0
158	1	19	30	2
157	3	19	6	7
158	8	19	-34	13
158	4	19	8	10
158	5	17	2	15
158	7	20	-16	12
158	5	18	22	8
157	5	15	-4	9
158	5	16	-4	11
158	4	20	-11	10
158	5	21	-5	10
158	5	22	5	15
158	7	18	10	16
158	5	19	16	19
157	8	21	13	16
157	5	17	11	15
158	3	19	-16	16
158	5	19	-28	8
159	4	17	-28	7
157	5	17	-19	7
157	5	21	-7	2
158	5	19	6	-4
157	7	21	2	-7
158	3	19	-21	-7
157	5	16	-25	-4
158	8	15	-6	-10
158	8	16	16	-18
157	10	17	49	-13
158	8	13	82	-11
157	5	10	88	-7
158	7	14	41	-2
157	6	17	0	-4
157	5	18	17	-1
158	2	18	8	-2
158	0	15	1	-1
158	2	18	0	10
158	5	21	-8	13
157	6	18	-17	19
157	8	19	-45	11
158	11	17	-27	7
157	8	16	27	-7
158	3	17	58	-14
158	5	22	35	-9
158	5	22	41	-10
158	6	20	53	-14
158	2	18	14	-8
157	3	14	-28	2
157	2	15	-27	1
157	3	17	-15	-3
157	3	23	-16	-6
158	4	24	10	-12
158	4	22	-4	-8
158	5	19	-38	2
158	4	15	-47	10
157	4	9	15	14
158	1	11	51	17
158	5	19	-8	22
157	7	21	0	21
158	9	19	-25	23
157	7	17	-3	23
158	5	19	78	20
158	6	19	104	16
157	5	19	71	13
158	7	18	27	2
157	5	17	49	-22
158	2	17	-27	-23
157	1	14	-18	-23
158	3	21	2	-32
158	3	22	-49	-30
158	6	23	-44	-28
157	7	22	-52	-20
157	5	19	-26	-17
158	4	19	-19	-14
158	5	15	-15	-1
158	5	11	-15	6
157	6	10	-5	15
158	6	15	15	10
157	7	20	9	11
158	7	22	14	14
158	6	17	10	18
157	5	21	34	24
157	3	19	100	13
157	5	17	149	14
158	5	17	120	8
158	5	15	72	0
158	7	18	15	-14
158	5	18	-20	-22
158	4	18	23	-6
158	10	18	16	8
158	8	19	-53	11
157	9	20	-39	8
157	5	17	9	3
157	5	18	-19	5
157	5	14	-24	7
158	4	14	-6	12
159	6	19	8	17
158	4	19	8	12
158	5	19	-30	7
157	3	17	-95	5
158	3	13	-100	2
158	4	17	-48	-4
157	3	21	-43	-8
158	8	21	-14	-10
158	6	21	33	-6
158	7	19	98	0
157	3	19	129	2
158	3	21	42	6
157	7	22	12	4
158	2	21	8	2
158	7	20	-25	7
157	4	17	37	4
158	3	17	99	2
158	4	17	34	4
158	4	18	-37	7
158	4	21	-34	12
158	3	19	-39	8
158	5	23	-22	6
158	5	21	-8	0
158	5	17	-13	-8
157	1	15	-27	-11
157	7	15	-18	-17
157	7	17	54	-9
157	7	18	52	1
157	9	22	0	-1
158	4	17	-8	-1
158	3	19	-14	3
158	5	20	-4	2
158	7	14	-8	1
158	4	16	-24	0
157	2	16	19	2
158	2	19	41	6
158	5	22	36	2
157	8	22	29	8
158	3	19	19	22
158	4	16	34	31
158	3	15	53	26
158	3	19	35	23
158	5	19	-5	15
157	5	17	-3	11
158	9	17	-13	-2
157	11	17	-7	-22
158	5	23	-4	-36
158	5	20	-11	-43
158	2	14	13	-33
158	3	17	19	-33
157	8	21	20	-31
157	5	17	21	-25
158	2	16	56	-18
157	0	10	72	-13
157	5	19	21	-7
158	8	24	-25	8
158	8	18	-18	9
157	8	14	-21	19
157	8	14	-17	25
158	6	19	-4	21
158	4	18	-10	23
158	2	18	4	12
157	4	19	0	16
158	7	21	3	10
157	7	16	2	3
158	3	18	-1	6
158	7	23	-5	2
157	5	22	-25	3
158	5	20	-23	0
158	5	23	-22	4
157	4	19	12	5
157	3	15	26	0
158	2	16	4	4
158	2	17	6	9
158	7	21	8	11
157	7	22	38	13
158	4	18	10	18
157	3	17	-24	12
157	4	15	-10	2
158	4	17	0	4
157	7	18	34	3
158	7	19	29	3
158	9	22	82	2
157	11	21	77	-1
158	8	21	60	-6
158	8	21	87	-14
158	5	20	-28	-16
157	7	19	-47	-15
158	4	17	5	0
158	5	16	19	0
158	7	15	26	-12
158	5	16	31	-16
158	5	17	35	-21
157	5	18	25	-11
158	4	15	-6	-1
157	3	17	-70	3
157	2	13	-75	7
158	1	15	-69	7
157	4	20	-38	8
157	4	22	-4	11
158	5	17	-1	10
157	7	17	5	12
158	5	15	-21	14
158	5	16	-5	16
157	3	19	16	14
158	6	17	3	8
158	7	17	-3	6
158	7	22	9	6
157	7	22	29	-2
157	3	22	9	-4
158	3	14	-7	3
158	2	4	-15	-1
158	1	11	6	-9
158	5	19	19	-9
157	7	18	31	2
157	5	17	63	14
158	5	17	40	18
157	7	19	11	18
157	7	19	4	17
158	9	19	10	6
157	7	19	6	-10
157	2	19	4	-23
158	2	17	7	-28
158	5	19	12	-26
157	6	18	6	-15
158	4	17	3	-8
157	1	18	-4	-2
158	5	17	-38	4
158	3	17	-9	1
158	5	22	32	1
158	8	19	50	-4
158	3	17	27	-10
157	3	17	-14	-5
157	5	14	1	-6
158	4	19	8	-2
157	5	21	4	4
157	5	16	-1	11
157	4	19	23	7
157	6	19	53	5
157	5	22	30	6
157	7	22	35	11
158	7	24	31	7
157	7	23	-30	8
158	7	22	-40	13
158	5	21	-34	11
158	4	14	-13	14
158	4	11	68	4
157	3	9	90	2
157	3	14	80	4
157	4	18	4	10
158	5	19	-73	12
157	7	19	-8	2
158	8	16	-25	6
157	5	17	-44	-7
158	3	22	8	-16
158	1	17	30	-13
158	0	16	29	-15
157	5	15	12	-10
157	8	18	56	-1
157	5	19	48	4
158	5	19	2	6
157	9	19	-9	2
158	7	19	-25	9
158	7	19	-14	12
157	7	16	-16	11
158	10	16	-13	16
157	5	17	69	5
158	4	17	53	-1
157	5	13	-12	-10
159	4	15	-6	-23
158	5	20	-18	-22
158	5	21	0	-12
158	5	22	-6	3
158	8	22	-18	0
158	8	19	-17	1
158	7	19	-20	9
158	4	21	-7	12
157	4	21	-3	20
157	4	19	13	14
157	0	20	9	11
157	2	19	14	10
158	3	19	7	4
157	5	19	2	1
158	7	20	-1	-3
157	3	19	-10	-6
158	4	19	-5	-4
157	3	18	-1	-2
158	5	19	8	-2
157	7	19	17	3
158	6	19	36	9
157	6	23	39	13
157	2	21	21	9
157	4	23	13	6
158	5	20	5	9
158	4	15	-5	13
158	3	18	4	15
157	5	19	23	15
158	4	18	36	5
157	5	19	33	-7
158	5	20	14	-20
158	7	20	-5	-33
158	4	22	-8	-47
157	5	18	-20	-32
158	7	13	-17	-9
158	5	9	-11	-12
157	2	10	4	-10
157	3	14	8	-9
158	7	18	-8	-4
157	7	17	3	3
157	7	18	4	4
157	5	21	6	10
158	6	19	13	12
157	8	20	18	12
157	5	21	5	11
159	5	19	-5	12
158	3	21	19	15
157	3	23	29	22
157	3	20	33	17
157	3	17	13	13
157	7	15	-12	15
157	6	14	3	5
157	4	18	1	3
159	4	18	-29	10
158	4	12	10	13
158	3	11	81	12
157	4	13	79	4
158	4	14	15	0
158	5	22	-19	8
157	11	22	-3	3
157	8	19	40	-9
158	5	21	32	-13
158	7	20	-9	-9
158	5	18	-19	-1
158	7	23	-7	0
157	8	21	4	0
158	4	18	-25	3
157	4	19	5	4
158	3	17	71	4
158	3	17	26	1
157	7	19	-6	1
158	3	22	0	1
158	4	15	-26	1
159	4	15	-3	3
158	3	19	6	-2
158	4	16	0	-4
158	3	19	-1	4
157	6	18	-1	4
157	4	17	13	9
158	4	18	-5	12
158	5	17	-29	6
157	5	15	-48	-5
157	5	16	-33	-11
157	6	17	-18	-18
158	10	17	3	-15
158	5	14	17	0
158	7	14	33	-6
157	8	21	45	-7
158	9	22	12	-6
157	7	21	25	-12
158	8	20	39	-4
157	3	14	19	-1
157	3	13	39	4
157	3	15	15	14
158	1	17	23	18
158	1	17	33	22
158	4	18	29	21
158	1	14	56	19
157	2	12	5	7
157	3	16	-1	-8
158	7	17	3	-6
157	10	22	-12	-15
158	9	22	-15	-25
157	7	19	-32	-27
158	6	21	-19	-20
157	4	22	-8	-5
158	5	20	4	7
158	3	17	6	16
158	4	18	21	14
157	4	17	-9	8
158	1	15	-52	7
158	5	19	4	-2
157	7	24	85	-8
158	9	22	112	-11
158	5	19	43	-12
158	5	7	4	-3
158	4	5	6	7
157	6	14	-17	6
157	5	13	-32	11
157	7	14	-45	6
158	6	19	-21	7
157	5	19	-22	5
157	4	21	17	7
157	3	21	52	11
157	2	19	39	9
158	5	19	14	13
158	8	24	-36	13
158	8	21	-37	14
158	7	18	-16	17
158	1	24	-1	18
158	4	21	-8	16
157	6	24	-9	14
157	5	22	-3	5
158	4	15	-1	-6
158	1	15	-1	-20
158	5	19	14	-38
157	3	25	21	-29
158	4	22	5	-10
158	5	17	13	-2
158	2	14	9	2
157	4	15	-7	-4
158	1	15	-16	-2
158	3	19	7	-6
158	4	21	33	-8
159	8	18	58	4
157	3	19	40	9
158	1	19	23	7
159	4	19	64	7
157	4	15	24	7
157	5	16	4	8
158	4	15	-23	6
157	6	15	-30	1
157	8	15	-6	0
157	5	15	-27	-3
158	2	18	-20	-9
158	5	18	-15	-7
158	5	19	13	0
157	7	18	13	2
157	5	17	3	5
157	5	17	43	11
157	6	19	54	14
157	5	26	38	20
158	7	28	61	17
157	5	21	35	6
158	5	19	-21	0
157	7	18	-16	-9
158	3	13	4	-24
157	1	15	12	-18
158	5	18	-11	4
158	7	17	-28	14
157	4	19	-32	13
157	3	17	-23	4
158	2	17	-9	1
157	1	20	2	2
157	5	20	34	-1
158	5	19	72	2
158	5	17	84	-2
158	6	18	43	-3
158	7	21	26	-8
158	5	21	10	-9
157	2	19	-30	-2
158	5	21	-33	2
157	2	16	-27	9
159	6	18	-19	11
157	8	19	-7	7
158	3	22	-5	-1
157	5	20	-3	-11
158	3	14	-3	-9
157	5	13	12	-9
158	8	24	-1	-6
158	7	22	-13	6
158	3	19	17	15
157	7	20	41	18
158	5	20	39	18
158	5	23	6	10
158	8	24	-23	4
157	10	24	-25	-6
157	9	18	13	-6
157	8	11	17	-6
158	7	10	12	-17
158	2	13	32	-14
158	4	14	23	-2
157	7	14	12	4
157	7	18	0	1
157	1	19	-1	3
157	1	19	1	11
157	5	17	7	14
158	1	15	8	11
157	5	15	3	7
158	8	17	-26	-3
157	8	15	-46	-8
157	7	19	-3	-7
158	4	19	4	-7
157	7	17	29	-6
157	6	17	68	0
157	5	17	75	4
157	3	19	112	4
157	4	19	113	12
157	5	19	20	11
157	5	25	-78	8
158	5	26	-41	8
158	5	19	-46	6
158	3	17	-97	1
158	4	15	-26	-9
159	3	13	24	-12
158	3	9	48	-13
158	5	-18	32	-10
158	6	-45	14	-7
158	9	-43	-2	-1
158	5	-39	-11	5
158	5	-31	11	7
158	5	-21	-6	11
158	5	-18	6	10
157	5	-4	3	7
157	3	5	2	9
157	4	13	8	9
157	5	17	-5	11
158	6	27	1	11
158	7	33	2	15
158	7	38	8	15
158	8	37	6	11
158	6	36	-18	18
157	7	40	-38	4
158	6	38	-15	-13
158	4	41	21	-19
157	6	48	8	-9
157	7	48	-5	-1
158	4	48	15	0
157	6	49	48	-6
157	3	47	62	-11
158	1	43	48	-9
158	3	37	51	-14
158	4	41	26	-16
157	5	44	-21	-13
157	1	37	-10	-8
158	3	38	29	4
158	4	34	37	8
158	4	31	4	13
158	5	32	-13	12
157	2	31	-6	13
158	4	29	-22	11
158	4	29	10	1
158	8	29	9	-2
157	10	31	-1	0
158	9	28	16	-7
157	10	23	-21	-4
158	6	23	-31	-1
158	3	24	-23	0
157	6	22	20	7
158	4	19	22	11
158	6	17	9	13
158	6	18	37	8
157	3	19	25	9
158	1	13	5	4
158	1	9	4	7
157	4	17	51	7
158	3	18	22	6
158	7	15	4	2
157	7	19	38	3
158	4	14	6	5
158	5	15	19	10
158	4	14	11	12
158	3	12	5	7
157	3	13	0	0
157	3	17	-19	-6
158	5	19	-27	-9
158	7	15	-34	-6
158	6	19	-18	-2
158	6	19	-8	-13
159	4	19	9	0
157	4	15	-1	9
158	5	12	-1	0
158	2	13	19	-6
157	3	15	42	-10
157	5	15	45	-10
158	4	9	10	-19
158	5	7	-38	-14
157	6	9	-25	-16
158	4	15	4	-10
157	3	13	2	-1
157	3	12	16	6
157	3	12	16	10
157	4	12	16	11
157	3	16	5	13
158	3	15	-13	14
157	5	16	-25	16
157	6	15	-13	13
158	7	14	2	12
157	11	19	13	8
158	8	19	36	4
158	7	19	9	5
158	8	21	-3	9
157	5	14	6	9
158	4	13	6	10
158	1	14	-9	15
158	3	12	-18	17
158	4	14	3	16
157	3	17	6	13
157	5	17	43	10
158	4	14	137	-2
158	3	13	165	-18
158	3	17	45	-35
158	7	21	-45	-36
158	7	13	-40	-38
158	7	11	-28	-32
158	6	16	9	-12
157	2	15	20	-7
157	3	15	-5	0
157	5	17	-18	3
158	3	17	-7	4
159	3	21	-9	8
157	5	24	-10	7
157	4	21	-10	6
157	2	19	-2	7
158	7	17	10	10
158	7	15	21	8
158	3	14	6	14
157	1	12	19	12
158	4	15	82	12
158	5	24	14	17
158	5	20	-19	15
157	4	22	26	20
158	1	21	20	28
158	2	17	28	29
158	6	18	27	24
157	7	21	21	11
157	8	19	-15	0
158	9	15	-68	-11
157	8	18	-60	-26
157	7	22	-3	-33
158	7	24	-29	-32
157	7	25	-33	-38
158	3	23	44	-31
158	2	19	45	-18
158	5	21	66	-7
158	7	22	25	2
157	7	16	-51	2
158	8	13	-96	4
157	5	14	-77	4
158	7	19	-10	4
158	9	19	-18	5
157	5	17	8	9
157	7	17	21	11
158	7	18	53	10
158	7	16	43	14
157	6	18	0	11
158	8	19	23	14
158	9	17	18	15
157	5	17	19	14
157	7	19	19	8
158	5	17	14	3
158	4	17	0	8
157	7	17	-14	4
158	4	17	-9	7
157	2	19	-7	2
157	3	19	6	4
158	3	13	23	7
157	5	13	47	1
157	5	18	66	-2
157	4	18	58	-7
157	4	22	31	-8
158	5	22	23	-7
158	7	21	-7	-10
158	5	18	-47	-6
158	4	16	23	-1
158	2	18	101	5
157	3	18	61	6
157	4	15	40	0
157	3	16	25	-2
158	4	19	-3	-3
158	6	19	-7	-4
157	2	21	-17	-6
157	5	22	-11	-2
158	5	22	-15	6
157	5	22	-6	0
158	8	20	5	0
158	10	21	-1	2
158	5	15	-13	6
158	3	11	-20	6
158	5	17	-3	4
158	5	18	-9	17
158	7	15	-15	21
157	3	19	-22	20
158	3	19	-16	23
157	10	17	1	24
158	5	20	-1	19
158	5	19	-11	20
158	4	14	2	12
157	3	14	43	-2
157	3	17	32	-14
157	5	18	-15	-24
157	7	20	-8	-30
157	7	16	16	-39
158	6	17	30	-25
158	5	23	33	-24
158	7	23	-28	-24
157	7	19	-29	-32
158	1	18	12	-35
157	1	15	21	-28
158	3	15	47	-21
158	1	14	1	-6
159	3	19	-40	8
157	3	19	9	17
157	5	14	30	18
157	3	18	5	19
158	3	19	50	23
157	5	18	22	27
157	5	15	-4	28
157	4	16	26	26
157	5	17	-35	23
158	4	20	-36	24
158	5	21	5	25
157	5	15	32	16
157	9	21	6	2
158	10	24	19	-2
157	9	22	13	-24
157	7	18	-12	-42
158	4	15	13	-18
158	5	19	5	-12
157	6	22	48	-11
158	6	18	15	1
158	7	19	3	7
158	4	16	8	6
157	3	20	-13	11
157	4	22	-14	15
157	5	16	-23	12
158	1	15	-27	13
158	2	14	-40	11
158	2	15	1	9
157	2	21	-5	2
158	2	22	9	1
157	1	18	46	5
158	5	18	50	6
157	4	19	54	5
158	4	20	53	7
158	8	24	18	4
157	5	22	-6	5
158	5	25	-25	3
157	7	27	-56	4
157	7	21	-22	6
157	4	14	-15	11
157	4	10	22	13
158	4	16	107	4
158	5	15	96	-7
158	3	18	77	-16
158	7	21	66	-15
158	8	17	-16	-6
157	8	15	-47	-1
158	7	17	-22	-4
157	6	21	-17	0
157	5	17	3	-7
157	3	17	17	-9
157	7	16	14	-1
158	8	15	-24	0
158	5	18	-22	6
158	4	15	1	4
157	7	17	-12	10
157	10	17	8	0
157	5	19	31	-6
157	7	22	0	-7
157	6	19	-6	-4
158	6	19	-7	7
158	4	20	-16	7
158	6	20	-5	8
157	5	21	-21	17
157	5	22	-8	19
157	5	17	13	15
158	3	16	18	11
157	5	17	7	11
157	3	14	-2	9
158	7	19	-3	0
157	6	19	-18	4
158	5	15	-21	11
157	3	14	-35	4
158	4	14	-10	-8
157	6	13	74	-22
157	5	15	51	-34
157	7	23	4	-42
158	7	26	48	-40
157	5	26	47	-30
158	8	20	94	-26
157	10	19	92	-21
158	4	18	42	-13
157	6	14	29	-8
159	4	15	-31	1
158	1	18	-48	10
158	5	21	-42	17
157	8	19	-33	16
158	8	17	-30	16
157	4	14	-4	16
158	6	16	29	19
158	5	15	-10	18
158	4	18	-69	17
158	4	20	-54	13
158	4	19	19	11
157	3	19	62	17
157	1	11	88	14
158	2	14	41	12
158	1	25	-15	6
158	0	21	-31	9
158	1	14	-19	11
157	9	20	-6	7
157	9	17	-6	6
157	3	14	-10	-1
158	3	15	-2	2
158	3	16	34	-1
157	7	18	18	2
158	3	17	51	6
158	1	15	59	4
157	7	19	13	3
157	8	22	25	4
158	7	17	22	6
158	4	22	19	-4
157	4	22	2	-5
158	6	19	-20	-1
158	7	19	-14	0
157	4	16	-12	2
158	3	18	8	8
157	7	18	24	6
157	5	14	21	0
158	3	17	-9	-2
158	3	17	-33	0
157	6	14	0	4
157	7	19	43	-1
158	4	17	17	2
157	4	21	-18	3
158	5	19	-19	-2
158	7	16	-22	-7
158	7	18	36	-2
157	2	14	41	1
158	3	16	16	1
159	9	20	3	2
157	9	21	-27	-5
158	7	14	-26	-21
157	3	17	-25	-14
158	1	17	18	-6
157	2	15	33	-11
158	6	17	30	-1
157	6	18	58	3
158	3	18	37	9
158	8	17	22	14
157	8	18	15	21
158	7	15	8	23
158	6	15	16	21
158	5	19	12	21
157	5	23	-3	19
157	5	22	-26	9
157	3	19	-19	-2
157	-1	14	35	-13
158	4	14	26	-32
158	4	22	-18	-41
158	4	21	-26	-42
158	5	17	-71	-17
158	6	23	-27	-4
157	5	22	24	-8
158	5	19	19	-13
158	5	21	28	-23
158	5	17	-19	-29
157	7	22	-30	-29
158	7	26	-24	-5
158	8	21	2	2
158	5	21	33	11
158	5	18	40	15
157	6	18	61	16
157	4	18	35	23
158	3	17	29	21
158	5	19	30	20
157	4	19	-39	18
158	5	19	-61	16
158	7	22	-40	21
157	8	22	-26	21
157	6	17	27	15
157	4	15	63	14
158	5	14	72	12
157	4	17	43	11
157	5	16	51	10
158	6	14	29	9
157	7	17	-42	2
158	7	19	-33	-7
158	3	18	-26	-6
157	4	18	22	-5
157	8	21	50	-2
157	5	14	39	2
157	3	13	22	4
157	5	19	35	-3
158	3	21	42	-1
158	5	17	-30	6
158	10	12	-5	7
158	4	12	15	4
157	6	16	22	2
158	6	14	25	5
157	1	14	-20	4
158	0	20	-41	1
157	2	22	-49	1
157	5	18	-12	3
158	7	21	13	-5
157	5	24	15	-4
158	3	22	6	-9
158	0	16	24	-18
158	4	15	26	-19
158	2	22	4	-17
158	5	23	2	-10
158	8	18	-19	-1
157	1	17	-1	4
157	3	18	-6	4
157	4	22	-23	10
157	5	19	-27	9
158	4	18	-33	4
157	4	21	-1	4
158	5	18	22	13
158	3	19	8	15
158	3	18	-33	16
158	5	17	0	14
158	5	15	69	12
158	6	17	48	13
158	4	19	54	9
158	5	18	46	4
158	3	18	-1	-5
158	5	21	22	-20
157	5	21	17	-22
157	5	17	14	-19
157	4	13	10	-22
157	5	15	-3	-21
158	4	15	12	-11
157	5	15	1	3
157	5	16	8	7
158	4	13	8	10
158	7	17	10	17
158	7	17	13	21
158	7	17	2	22
158	7	19	5	15
157	8	22	5	16
158	7	18	-22	14
158	8	15	-58	3
158	5	22	-59	-6
157	5	24	-15	-20
158	5	20	25	-34
158	7	20	39	-35
157	7	20	64	-27
158	5	19	84	-3
158	4	21	47	4
157	5	19	1	1
157	7	17	5	8
158	4	17	8	8
158	3	19	2	12
157	5	18	-17	18
158	3	16	-30	23
158	3	17	-5	19
158	3	19	-6	14
157	4	15	17	9
157	3	19	17	7
159	7	18	-16	9
158	9	18	6	-1
158	10	21	0	-4
158	9	22	6	-10
158	5	23	34	-7
158	5	18	32	2
158	6	14	26	3
158	5	17	5	5
158	6	19	8	-2
158	6	22	4	-9
157	7	22	11	-16
157	7	19	18	-24
157	5	18	6	-14
158	4	19	14	-6
158	4	14	18	-3
158	1	15	-7	7
157	3	18	-20	6
158	4	19	17	11
157	4	16	11	10
158	5	19	-13	6
157	5	23	-11	5
157	8	24	-20	0
157	5	24	4	0
157	2	22	7	-2
158	5	17	-16	4
158	5	11	-8	7
158	5	10	-16	5
158	4	14	-20	7
158	2	17	7	8
157	3	18	31	7
157	3	16	49	4
157	3	17	57	3
157	6	18	27	7
157	7	22	-28	4
157	6	24	-61	1
157	3	22	-34	3
158	1	22	1	0
158	3	19	-27	-1
158	4	13	-23	5
158	4	14	36	4
158	5	15	31	1
157	5	18	-15	4
158	6	21	22	3
158	4	20	21	3
158	6	16	47	4
157	5	18	77	5
157	4	22	6	5
158	4	19	13	13
157	7	19	-6	13
158	3	17	-4	4
159	5	15	36	-6
158	5	15	77	-27
158	6	15	112	-38
158	7	17	91	-27
158	5	15	112	-17
158	6	15	70	-11
158	6	17	-31	-8
158	5	16	-79	0
158	3	18	-52	0
158	8	15	-24	4
157	9	14	-47	13
158	6	14	-46	12
157	8	12	-35	9
158	7	15	-26	13
157	7	19	-29	17
157	4	23	-17	12
158	4	18	-1	3
158	4	22	-10	-2
158	3	21	-25	-3
158	6	19	-8	-11
158	4	21	18	-8
158	3	19	11	6
158	3	19	21	15
157	4	22	2	13
158	4	22	-14	8
158	5	16	41	10
157	4	15	59	19
158	3	15	24	14
157	0	16	15	10
158	3	22	19	5
158	8	21	28	-1
157	5	21	36	-1
159	5	21	-20	-4
157	10	23	-64	-5
157	8	24	-11	-16
157	5	18	2	-15
158	3	11	5	-9
158	3	11	70	-7
157	6	16	32	-2
157	2	21	-35	2
158	4	24	12	12
158	8	19	-18	14
158	8	19	0	18
158	7	22	49	12
157	7	19	37	2
157	7	22	33	0
157	2	16	24	0
158	3	11	46	2
157	5	10	8	-5
158	2	16	-22	-6
158	5	19	-44	-1
157	5	21	-15	-2
158	5	18	15	-2
158	4	20	10	2
157	5	21	46	2
157	0	13	72	3
158	3	13	41	0
158	7	15	-44	4
158	8	20	-67	7
157	4	22	-75	6
158	4	23	-48	9
158	3	19	4	4
157	2	17	1	13
157	4	16	3	13
157	3	18	10	5
157	3	22	35	-6
158	4	18	35	-13
157	9	19	16	-7
158	7	19	-8	-5
157	8	18	-20	1
158	8	17	-32	3
158	5	18	-40	0
157	5	18	-13	2
157	4	19	-7	5
158	5	17	24	9
158	5	17	67	15
159	7	18	122	15
158	7	15	132	12
158	4	17	40	11
158	4	21	-6	-1
158	4	18	-6	-9
158	8	22	-16	-15
159	5	21	-19	-20
158	7	19	-13	-32
157	5	19	-1	-30
157	3	13	16	-9
158	4	11	39	-2
158	5	15	38	2
157	6	17	-7	5
157	8	17	-18	7
157	8	18	5	-3
157	5	18	0	-12
157	8	18	-12	-16
158	7	21	16	-12
158	4	17	41	-2
158	4	18	-20	9
158	1	17	-37	11
157	1	15	10	12
157	4	17	23	17
158	5	17	-3	8
158	7	22	-13	9
157	8	19	-12	4
157	7	18	-9	4
158	7	24	3	14
157	5	25	21	7
157	1	19	83	5
158	2	17	77	15
158	4	15	-20	16
158	4	21	-33	15
157	1	25	1	25
157	3	18	-38	24
157	3	19	-15	15
158	1	17	11	14
158	3	19	-11	1
158	5	19	-52	-6
157	3	19	-32	-11
157	3	17	45	-17
158	2	14	30	-17
157	4	17	17	-20
158	5	18	32	-17
158	5	19	38	-9
157	8	17	35	-5
157	7	18	10	1
158	3	19	16	4
158	6	19	0	2
157	8	19	-7	5
158	8	21	-1	3
158	5	15	-12	-2
157	2	17	-5	3
159	5	19	13	0
157	6	15	14	2
157	5	19	35	6
157	4	21	53	4
158	5	24	40	3
158	5	23	18	0
157	0	17	0	1
158	3	15	-2	1
158	7	18	-8	2
158	6	19	4	6
158	5	20	16	8
157	4	19	6	5
158	5	21	-16	4
158	3	18	-49	0
158	7	17	-64	-1
157	5	22	-46	2
158	6	19	3	7
158	9	12	35	10
157	6	10	61	10
158	6	12	85	9
157	4	16	38	4
157	5	19	-5	0
158	3	17	-7	-6
157	1	17	-12	-14
157	4	16	15	-24
158	2	12	31	-24
157	5	14	-4	-6
158	5	18	5	6
157	4	16	4	8
157	4	17	-18	10
158	7	22	-20	7
157	5	15	-13	9
158	6	17	-6	4
158	5	22	-31	-1
158	7	22	-60	-4
158	7	24	-50	-6
158	6	15	15	-4
157	5	13	69	-9
158	5	18	104	-8
157	8	17	135	-5
158	5	18	72	3
158	8	19	48	10
157	7	17	54	4
157	3	18	17	3
158	5	19	-1	6
157	4	17	-26	10
158	4	18	-23	17
158	5	19	-35	11
158	5	17	-50	3
157	5	19	-40	-8
157	4	15	-18	-20
157	2	15	-1	-19
158	3	18	24	-4
157	4	15	29	2
158	4	23	3	8
157	8	23	10	17
157	5	18	14	8
158	8	21	8	8
157	5	21	0	9
157	7	21	6	0
158	8	23	1	-5
157	5	20	-19	1
157	7	16	-28	4
157	5	19	-52	3
157	9	19	-15	2
157	6	16	44	-1
157	6	16	34	2
157	6	16	16	1
158	2	18	43	1
158	1	14	61	-2
158	3	15	22	0
158	4	16	19	4
158	6	17	13	19
158	6	15	-10	17
157	3	17	-9	14
157	3	19	-11	20
157	5	17	-11	16
157	5	19	-6	10
157	10	20	6	-1
158	8	24	13	-11
157	5	24	15	-23
158	4	21	5	-20
157	4	19	-21	-14
157	4	18	-2	-10
158	5	18	13	-10
158	7	18	9	-9
158	7	19	21	-15
158	5	20	7	-20
158	5	19	-10	-6
157	6	18	-31	7
157	5	14	-35	1
157	7	16	-21	-2
157	3	15	11	3
158	3	15	39	10
158	5	17	54	14
158	3	14	44	13
158	5	15	5	16
158	4	17	74	21
158	1	17	118	18
157	6	15	5	15
157	5	13	-17	7
157	6	14	-14	-7
158	5	22	-24	-20
158	3	19	27	-29
157	5	22	1	-33
158	4	26	-11	-25
158	3	22	-14	-12
157	7	21	-40	-1
158	5	20	-35	8
157	6	18	-28	7
158	3	17	-15	9
157	1	15	18	13
157	3	18	17	15
157	3	21	-23	18
158	2	17	37	16
158	5	17	50	17
157	7	18	13	9
158	5	18	49	7
158	0	19	60	6
158	2	19	54	-5
158	2	17	58	-10
158	7	19	17	-3
158	5	18	-30	9
158	8	21	-10	14
158	9	23	-19	7
158	4	17	-22	4
159	6	15	-21	-7
157	8	17	-21	-17
158	9	21	-7	-14
158	7	21	-4	-11
157	3	18	13	-6
158	5	17	-2	-4
157	5	17	8	-1
157	1	14	17	2
157	3	14	19	6
157	4	14	25	15
159	1	19	22	17
157	4	21	6	13
159	6	15	5	14
157	7	12	6	11
158	4	16	-16	5
157	3	17	-34	9
158	8	18	-34	7
158	6	24	-7	1
158	7	18	-4	-1
158	7	17	12	-4
158	7	17	-3	-2
158	4	19	-10	0
158	4	23	20	-5
158	2	19	33	-9
158	4	17	48	-5
158	8	17	1	-4
158	5	19	-7	0
158	5	18	41	1
158	5	17	54	2
157	5	17	13	0
157	4	21	1	-1
158	3	19	-5	11
157	3	19	-35	14
157	2	21	-7	9
157	3	20	-2	14
157	3	14	38	11
157	1	17	53	6
157	3	21	49	3
158	3	22	31	-8
158	3	24	9	-6
157	9	19	69	-8
158	5	17	82	-7
158	4	17	21	-4
157	7	17	-67	-1
157	4	18	-86	4
157	8	20	-58	-2
158	5	16	-11	-6
157	4	15	32	-6
158	3	19	16	-2
157	3	22	0	-1
158	7	21	-4	-6
158	7	19	-27	-5
158	4	11	-30	2
158	5	11	36	7
158	6	18	34	12
157	4	18	-33	15
158	4	18	-26	16
157	3	17	-8	13
157	3	15	28	7
158	3	18	48	8
158	8	19	29	4
157	8	21	32	-6
158	8	23	30	-19
158	10	16	-2	-36
157	7	14	-22	-37
157	5	13	2	-26
158	6	14	23	-20
157	6	16	38	-7
158	10	17	4	-1
157	8	14	40	6
157	8	9	60	14
157	9	10	-15	13
157	7	18	-1	11
158	4	19	-29	6
157	5	19	-40	7
158	4	21	-18	6
157	5	21	-12	11
157	5	22	30	13
157	4	18	23	10
158	7	19	38	5
157	6	19	1	11
157	3	18	-40	23
157	5	19	-44	24
158	4	20	-52	21
158	7	19	6	15
157	5	17	53	13
158	2	19	82	4
157	2	21	90	-2
158	4	19	36	-4
157	5	20	-26	-12
157	9	22	-14	-18
157	8	21	-3	-17
158	5	22	-20	-8
158	5	19	-5	10
158	3	18	6	17
158	1	19	16	14
157	2	15	2	11
157	3	22	3	-2
157	3	19	19	-7
157	3	19	45	-13
157	9	22	41	-26
157	7	19	-9	-21
157	8	21	-7	-11
157	7	22	-7	-4
158	3	19	-16	1
157	4	18	-3	7
157	2	15	10	11
157	0	15	39	10
158	3	17	32	11
157	4	17	-18	9
158	8	19	-18	11
158	4	18	-25	10
157	3	17	-38	7
158	3	16	-3	9
157	5	15	5	5
157	5	15	19	3
157	7	16	42	2
157	5	19	32	2
158	4	19	8	4
157	6	19	-10	7
157	3	21	1	7
158	8	18	12	2
158	3	15	12	3
157	3	13	15	10
157	3	15	27	15
157	3	19	33	11
158	2	20	38	6
158	1	15	34	7
157	3	10	-11	5
157	1	11	-48	-11
157	1	16	-22	-19
157	3	18	17	-26
158	7	19	8	-43
158	15	25	-10	-54
157	13	23	8	-47
157	7	18	-18	1
158	9	18	-11	14
158	7	15	4	4
158	5	17	-24	11
158	5	17	1	15
157	6	15	37	22
158	3	16	72	17
158	1	17	37	24
157	3	23	-4	21
158	5	23	9	11
158	3	17	-3	13
158	4	17	-5	7
157	10	19	-11	8
157	12	17	-16	3
157	8	16	-6	-5
158	9	16	-1	-12
158	5	15	20	-17
158	7	20	43	-18
157	5	24	49	-15
158	1	19	30	-12
158	2	16	29	-12
158	8	19	12	-5
158	8	19	32	-3
158	6	22	91	0
157	5	17	28	0
158	4	21	-30	2
158	6	25	-31	6
158	3	18	-58	9
158	1	21	-59	8
158	5	22	-80	7
157	8	19	-63	-2
157	6	15	27	-1
158	2	16	100	15
158	4	18	60	17
157	6	21	54	19
158	5	17	88	24
157	4	14	13	24
157	2	16	7	36
157	5	14	-18	33
158	2	11	-26	40
158	1	15	-17	35
157	1	15	-21	14
157	-2	17	-1	-5
157	2	21	-4	-27
158	1	16	21	-45
158	3	22	13	-60
159	9	24	6	-63
158	9	26	-10	-55
157	7	20	16	-42
158	5	16	25	-18
158	10	23	-26	-7
157	8	17	-27	-4
158	5	11	-11	8
157	8	19	-6	11
158	4	16	19	15
157	3	15	27	18
158	5	20	13	21
158	5	19	36	17
158	4	19	34	13
157	4	18	6	8
157	5	17	-5	2
158	5	17	22	3
157	5	14	13	6
158	5	17	-26	9
158	5	21	1	15
158	5	18	-2	18
158	7	18	-15	16
157	9	18	-13	16
158	8	17	18	18
157	8	19	56	14
157	3	22	14	7
157	4	15	-11	-4
158	3	17	-18	-9
158	3	24	-46	-9
158	7	25	-29	-12
158	9	24	43	-4
157	8	17	104	-5
158	5	17	70	4
158	7	18	27	2
157	8	19	6	1
158	7	19	-2	6
157	4	24	6	2
157	3	21	-21	4
158	4	16	-22	6
157	4	12	-24	9
157	6	12	-15	7
158	4	15	10	7
158	5	17	38	7
157	3	15	15	6
158	1	18	-14	2
157	8	25	18	5
158	7	22	7	4
158	5	15	16	-1
158	7	14	14	-1
157	7	12	-4	-9
157	4	14	0	-11
158	4	15	-2	-12
157	5	14	13	-11
157	6	17	16	-9
157	6	15	20	-5
157	8	19	25	-5
158	4	17	18	2
157	4	17	1	4
157	5	22	-9	4
158	7	22	-11	1
158	4	19	1	-4
158	4	19	2	4
157	3	17	4	13
158	1	16	19	18
157	2	19	13	13
158	3	19	-28	7
157	4	21	-60	-2
158	5	22	-1	-11
158	5	18	57	-18
158	3	22	32	-21
157	1	19	21	0
157	3	18	17	6
158	5	19	24	2
157	4	21	31	-2
157	3	21	15	-10
157	2	22	25	-4
158	5	19	44	0
157	5	19	72	-1
157	4	17	35	2
158	3	15	1	4
157	3	15	-18	3
158	4	19	-53	3
157	4	22	-43	5
157	5	18	-59	15
157	4	12	-6	26
157	3	12	13	24
158	5	21	-36	11
158	7	22	22	5
157	5	19	-3	3
158	8	20	-36	3
158	8	20	24	2
157	4	19	69	1
157	4	17	85	-2
157	7	18	19	-9
158	3	22	-28	-6
157	7	22	-21	-9
158	6	24	8	-13
158	8	23	38	-24
158	4	17	35	-30
157	3	14	14	-32
159	4	10	-19	-12
158	5	12	-26	4
157	3	17	-15	0
158	5	18	-3	7
157	5	16	21	9
157	6	17	25	15
158	6	21	8	15
157	3	18	19	19
158	0	17	21	21
157	1	14	-3	18
158	5	18	3	19
157	5	21	31	15
157	4	18	31	20
158	4	20	-7	9
157	5	18	-16	-1
158	5	18	-23	-10
158	5	16	-14	-13
158	5	14	-10	-8
158	3	11	-24	-9
158	-1	11	-7	-5
158	0	16	4	-4
158	3	19	24	3
157	7	21	8	9
157	12	20	47	9
157	15	19	90	7
158	11	21	36	8
157	7	20	-3	15
158	4	20	0	12
158	5	17	24	7
157	5	15	-1	6
157	7	23	-5	4
158	8	24	4	-2
157	5	22	-38	-6
157	4	18	-40	-1
158	4	10	12	-6
157	1	12	27	-11
158	3	17	-11	-9
158	5	16	22	-14
157	4	17	-1	-11
159	5	20	-15	-2
158	5	23	29	1
157	6	22	30	-5
157	5	18	61	-8
157	11	15	58	-15
158	26	16	69	-14
157	30	14	74	3
157	15	14	32	3
158	10	18	-54	0
158	-1	21	-90	2
157	-7	21	-71	3
158	-12	17	-55	3
157	-29	18	-36	10
158	-33	21	-35	10
158	-10	23	4	7
158	3	25	9	9
157	-1	24	-2	7
158	7	24	-3	6
157	10	22	-2	10
158	10	22	23	11
157	10	21	57	10
157	12	23	98	7
158	10	19	77	2
158	8	8	0	6
159	8	10	-16	2
157	5	17	-15	7
158	9	17	-15	10
158	11	22	29	4
158	11	23	-3	-1
158	11	23	-12	-5
157	11	22	10	-1
158	11	19	-8	-6
158	9	17	13	-9
157	12	17	2	-12
157	11	14	-3	-15
158	10	15	0	-11
157	4	16	35	-13
157	5	22	58	-6
157	7	25	-12	6
157	6	17	-37	17
158	5	17	-17	12
158	5	14	19	5
158	2	9	34	2
158	5	13	-9	-2
158	5	14	-7	-4
158	3	15	28	-14
157	5	18	37	-7
157	5	20	31	3
158	4	21	26	14
158	2	21	17	15
158	3	17	-12	14
158	3	15	-55	17
157	5	20	-74	8
158	6	14	-11	7
158	5	11	27	-1
157	4	17	21	-14
157	4	22	57	-22
157	4	19	61	-13
157	4	19	73	-14
157	1	19	42	-9
158	3	23	15	3
157	2	26	41	0
158	2	24	11	8
158	7	17	4	16
158	2	9	-33	16
157	2	17	-50	7
157	3	19	-18	5
157	4	14	-6	7
157	5	17	-3	7
157	5	15	-2	9
157	5	15	3	8
157	5	19	2	8
157	3	17	6	2
157	5	16	6	3
157	7	19	11	6
158	5	17	-3	2
158	4	19	-7	-1
157	5	22	8	3
158	6	19	19	6
157	5	21	17	-1
158	4	20	2	-1
157	8	19	4	-1
157	6	18	30	4
158	5	17	49	8
157	8	19	24	6
158	5	19	6	6
157	1	17	-18	2
157	5	22	-24	-1
157	4	25	-4	-2
157	2	24	-19	-5
158	13	21	-24	-5
158	27	17	-20	-11
157	11	18	-20	-23
158	4	20	-46	-27
158	13	18	-25	-8
157	8	18	40	3
157	-7	18	61	-2
157	-29	11	63	8
157	-10	13	39	3
157	22	19	18	0
157	35	19	0	0
158	16	18	-4	5
157	-30	19	32	2
158	-39	18	42	-1
157	-24	21	26	4
158	-25	19	9	1
158	-9	19	6	6
158	3	22	5	16
157	17	26	-4	26
158	22	26	-6	24
157	9	20	-1	21
158	13	17	10	20
157	18	13	13	16
157	17	14	1	8
157	15	13	-19	-1
158	16	16	-37	-15
158	17	17	-42	-21
157	12	12	-3	-27
158	10	15	27	-40
157	11	15	42	-34
158	12	17	142	-18
158	11	18	122	-15
157	8	19	40	-5
157	4	19	47	2
157	1	18	-4	0
157	0	21	-9	1
157	-1	16	-5	11
158	3	16	-34	14
158	5	17	-26	11
157	5	20	-35	19
158	5	18	-25	19
158	2	16	-14	16
157	3	18	-6	19
157	3	17	-6	13
158	4	17	-33	11
158	7	24	-20	9
157	8	22	2	2
157	8	22	2	-6
158	5	18	-9	-8
158	5	11	-26	-5
157	5	15	8	-9
157	5	14	33	-9
157	3	16	21	-7
158	6	18	27	-4
157	4	13	-23	7
158	4	19	-57	10
158	7	17	-4	7
158	6	15	20	0
158	4	18	40	-4
158	4	17	36	-1
157	3	18	33	-2
157	4	19	57	2
158	6	17	50	1
158	5	16	68	0
158	5	19	57	3
158	3	15	16	-3
158	3	17	-12	0
158	3	20	-27	13
159	2	17	-9	18
158	7	19	-13	11
158	7	18	1	4
159	5	20	6	10
157	3	21	-4	-2
157	2	21	8	-10
157	10	23	-2	-13
158	12	22	3	-22
158	8	19	-7	-17
158	5	20	-12	-12
158	5	21	-8	-12
158	7	20	2	-8
158	7	18	15	2
158	3	14	14	10
157	1	14	21	7
157	0	22	14	7
157	1	21	8	3
157	2	16	-5	6
157	4	17	-26	3
157	5	19	-77	4
157	8	22	-119	8
158	5	21	-83	9
157	4	15	42	10
157	2	15	101	7
157	2	20	80	7
157	7	24	86	7
158	7	19	1	4
158	4	17	1	-3
157	1	18	36	10
158	3	23	-28	17
159	5	22	-62	25
158	5	16	-33	26
158	7	19	26	23
157	6	17	98	25
157	6	15	119	18
157	6	15	3	19
157	5	16	3	4
157	5	15	16	-11
157	5	19	-7	-33
158	7	19	15	-52
158	8	21	-1	-62
157	7	17	10	-64
157	5	18	23	-43
157	5	19	60	-25
157	7	17	38	-6
158	7	18	16	4
158	7	17	13	17
157	5	16	-1	24
157	3	21	11	21
158	3	22	-5	16
157	4	17	-24	17
158	4	11	-61	17
158	2	11	-59	15
158	2	13	-35	16
157	1	13	-32	10
158	4	16	-45	14
158	8	18	-37	13
158	6	19	24	3
158	8	18	59	11
157	7	21	63	7
158	7	21	8	6
158	4	18	0	14
158	7	19	16	13
158	3	21	8	16
157	2	22	33	15
157	5	22	52	6
157	3	23	45	0
157	4	23	-12	-4
157	4	20	-21	-8
157	3	13	7	-6
157	3	15	19	2
158	3	15	21	-4
158	2	16	27	-9
157	5	24	30	-7
157	7	18	33	-4
158	6	17	10	-3
157	9	22	-46	-3
159	8	16	-7	0
158	5	17	53	-4
157	3	19	20	-6
157	4	23	-24	0
157	5	21	10	2
157	2	18	-3	-2
158	1	19	-7	0
158	2	16	8	3
158	3	16	7	1
158	4	14	28	2
158	6	18	-1	4
158	10	19	-18	-1
158	7	16	-55	0
157	4	14	-56	7
158	5	16	6	0
158	7	20	-24	2
157	4	23	-55	2
158	8	22	-2	2
157	10	15	43	3
157	8	13	99	0
158	7	19	86	-2
157	6	23	16	-7
158	8	24	21	-1
157	9	20	28	1
157	5	19	21	2
158	9	22	14	0
157	3	21	-8	-2
157	2	18	-32	-10
157	4	15	15	-6
158	4	14	43	0
158	3	11	-10	8
158	6	12	12	7
158	5	18	-8	4
158	4	19	-37	7
158	4	18	-8	-1
158	2	15	-7	-2
158	2	17	14	1
157	1	24	8	16
158	0	21	5	14
157	1	20	25	11
157	3	15	27	16
157	4	17	1	16
157	9	19	-12	14
158	5	21	0	0
158	7	22	-2	-13
157	6	19	2	-29
158	3	19	4	-37
157	3	14	21	-29
159	1	15	40	-15
158	-1	15	43	-12
158	1	11	45	-4
157	3	16	41	7
158	7	20	11	7
158	11	17	-7	14
157	15	19	-10	10
158	15	18	-44	3
158	13	18	-51	2
158	10	16	-65	3
158	5	12	-54	10
158	5	15	8	7
158	8	19	44	4
157	14	18	24	0
157	20	23	25	-11
158	19	22	55	-13
158	8	22	57	-17
157	2	21	56	-5
157	7	17	31	12
157	20	18	34	8
157	14	16	9	11
158	10	19	-24	12
158	6	18	4	13
157	-8	19	21	10
157	-15	17	10	8
157	-26	18	-4	15
158	-35	18	19	10
158	-24	20	1	13
158	-9	19	-21	4
157	-7	19	-1	-1
158	0	21	8	-4
158	9	19	-30	-15
158	11	20	-56	3
158	18	17	-51	11
157	8	15	-22	6
158	7	16	35	9
157	15	15	31	9
157	20	18	13	4
158	13	17	-15	-2
158	5	13	-39	-2
158	8	17	-37	-5
158	15	19	25	-3
158	14	22	83	0
158	5	22	55	-5
157	10	17	59	-6
158	4	19	54	1
158	8	20	1	0
158	7	17	-21	0
158	7	19	24	2
158	8	15	24	-1
159	5	15	1	6
157	4	16	8	6
157	1	19	10	4
157	0	19	12	6
158	3	16	22	-1
157	5	17	33	2
158	7	21	-19	8
157	7	16	-5	7
158	6	17	16	6
158	7	19	-1	2
157	4	19	10	-4
158	4	18	-25	2
157	4	15	-15	0
158	5	15	22	-5
158	2	13	34	2
157	1	12	8	1
158	4	21	-19	-2
157	3	19	1	7
158	5	15	48	7
157	5	12	62	-4
159	3	19	-15	-3
157	6	26	-12	-13
158	7	22	-17	-6
158	10	24	-54	4
158	9	19	-12	0
158	8	15	9	2
158	5	17	27	3
157	4	17	-6	2
157	0	17	-6	-7
157	-1	17	15	-9
157	3	18	10	-7
157	7	18	19	-11
158	12	19	19	-13
158	8	19	10	-7
157	5	18	18	-1
157	4	21	49	2
158	3	19	38	3
157	3	22	-12	2
158	6	21	-58	5
157	6	17	-19	6
157	3	18	-7	5
157	1	14	-17	4
158	0	18	22	9
158	5	20	15	7
158	23	21	-32	8
158	22	22	-47	9
158	8	18	-20	3
157	16	18	-3	9
157	9	19	14	-1
157	-1	18	25	0
158	-14	21	39	4
157	-32	18	51	2
157	-19	19	61	-2
157	8	21	33	-2
157	7	22	2	6
157	-3	19	7	-1
158	4	19	-18	2
158	12	17	-6	-1
158	20	19	-10	-1
158	18	18	-9	0
158	22	13	40	0
158	31	21	59	3
157	21	19	30	5
157	-5	17	30	6
157	-34	18	39	6
158	-44	17	3	9
157	-21	15	11	7
158	-8	10	-32	3
158	-14	10	-70	0
158	18	11	-11	4
157	36	15	32	-1
158	19	25	1	-2
157	8	29	-5	-1
158	-2	29	56	-2
157	-24	23	55	0
159	11	24	28	3
158	32	21	-25	1
159	36	19	-24	2
157	56	19	-5	4
158	20	13	-1	1
158	1	17	23	3
158	-19	15	5	7
158	-37	16	-2	3
158	-20	19	-10	-5
158	-17	19	-11	-4
158	1	19	-1	-9
158	28	17	21	-5
157	24	13	7	9
158	18	14	1	8
157	9	19	11	13
158	5	15	6	13
157	37	18	17	4
157	128	18	12	2
158	161	19	6	-1
158	106	18	-1	-9
158	103	15	-3	-9
159	115	13	-9	-4
158	106	13	27	0
158	-22	20	73	4
158	-155	24	12	0
158	-149	27	-37	5
158	-202	23	-17	7
157	-289	17	-13	3
158	-233	19	6	4
158	-53	19	15	-1
157	24	24	14	3
157	-6	27	22	7
158	10	21	25	7
157	-19	17	25	7
157	-8	21	28	-2
158	30	23	28	-6
158	33	22	4	-1
158	43	17	3	1
158	29	13	-2	4
157	34	10	-15	5
158	17	13	2	2
159	21	15	17	2
158	26	19	7	-1
157	12	18	2	0
158	3	17	-10	0
158	32	16	-27	3
157	70	10	3	1
158	66	11	-3	-2
158	65	14	-15	0
157	47	16	-8	-2
158	41	14	-1	2
157	42	15	25	6
157	26	15	-3	-1
158	13	19	-23	-8
157	17	19	-12	1
157	23	19	30	-3
158	7	19	126	-3
157	24	22	75	-1
157	35	24	-51	-2
157	29	22	-13	6
158	36	17	-25	6
158	42	15	-34	6
158	19	16	-9	2
158	6	16	-9	-2
158	-14	18	69	0
158	-45	17	77	2
158	-38	22	77	3
158	-37	24	72	2
158	-37	23	56	-9
157	-21	26	2	-9
157	-13	19	-36	-5
158	-14	18	-42	-5
158	-8	20	-33	-1
157	-3	18	-20	-3
157	1	17	-20	-3
157	4	21	10	-4
157	2	17	14	-4
157	3	15	34	6
157	9	11	9	5
157	13	12	-3	2
158	17	17	-5	2
158	9	19	-23	4
158	1	17	13	-2
158	-2	15	5	-5
158	-6	18	3	0
159	-18	18	-11	2
158	-12	18	-31	6
158	24	14	-9	12
158	59	16	7	14
158	35	16	18	10
157	3	14	14	9
158	-20	20	3	10
157	-47	22	-12	10
158	-47	19	-12	6
157	-24	20	27	3
158	27	22	50	0
157	22	21	20	-10
158	4	22	-5	-2
158	9	13	-1	1
158	3	17	16	2
158	13	24	37	-1
158	10	13	53	-5
157	10	15	3	4
158	7	20	-51	7
158	14	21	10	-1
157	25	22	10	0
157	25	19	-6	9
157	11	15	9	10
157	1	19	-19	8
158	4	18	-12	6
158	1	19	-5	-1
158	1	15	26	-1
159	-5	11	25	1
158	-3	11	18	-12
157	0	17	12	-15
158	11	21	-12	-7
157	16	22	36	1
158	10	18	49	4
157	8	17	43	8
158	13	22	38	2
158	23	17	45	-5
157	27	15	65	-1
157	48	15	25	0
157	106	14	-52	3
157	117	15	-55	4
157	69	15	-50	0
157	66	13	-41	2
158	34	14	-12	2
158	-63	19	-54	-1
157	-226	15	-46	1
158	-255	14	11	6
158	-61	17	13	12
158	-41	22	-25	5
158	-55	28	3	-4
158	-2	24	23	4
158	-32	25	68	3
157	1	24	117	1
157	-3	19	38	-3
158	-20	18	-5	-3
158	-7	19	8	-6
158	13	19	17	-3
157	41	19	8	0
157	45	19	2	-7
158	53	17	-13	-2
157	32	7	-26	2
157	26	-9	-13	4
157	48	0	20	6
157	71	15	62	15
157	62	15	42	15
157	23	22	19	5
157	43	26	23	-6
157	133	24	-5	-8
158	145	28	-12	-7
157	88	38	-9	-9
158	50	48	0	-5
158	-18	37	-10	4
157	-54	30	-46	-2
159	-95	30	-13	2
157	-88	31	0	8
157	56	31	5	6
158	52	24	2	10
158	-34	22	-14	7
157	-82	6	24	12
158	-175	4	43	12
157	-68	9	0	6
157	11	8	-7	0
157	-35	4	19	-10
158	-6	-11	14	-3
157	-4	-17	13	-4
157	37	-9	-13	-2
158	30	-5	-8	4
157	-11	4	4	0
158	-16	18	-3	-1
157	-6	26	12	2
158	26	34	30	4
158	14	47	55	7
157	37	44	17	8
157	49	37	7	-3
157	60	55	45	-13
158	90	55	42	-8
158	86	36	6	2
157	25	12	-60	14
158	-12	-7	-40	11
158	-67	-6	-6	0
158	-146	44	-20	-2
158	-81	60	4	-3
157	-31	5	16	0
158	-20	14	29	-3
157	20	15	32	1
158	27	11	31	7
157	40	17	25	9
157	55	18	4	3
157	116	26	4	2
158	172	19	9	5
158	122	15	9	4
158	90	-2	9	4
157	45	-8	16	-5
157	-56	3	2	-4
158	-180	10	-5	-2
158	-237	5	-12	0
158	-69	13	-24	0
158	0	25	-20	-4
158	-30	19	28	-2
157	6	-5	80	-4
158	-7	-13	69	4
158	38	-24	1	7
157	68	-7	-85	6
158	56	63	-45	0
158	30	95	-25	2
158	4	27	-53	6
158	-15	1	-25	2
158	-15	33	16	2
158	11	23	110	3
158	22	34	105	5
158	5	21	48	2
157	5	10	15	4
157	14	8	-8	-3
157	-5	16	15	-13
158	9	24	19	-14
158	10	15	15	-10
157	5	14	-6	-2
157	1	11	-7	2
158	13	16	-8	4
158	53	7	-21	9
158	67	9	6	9
158	81	3	13	10
157	62	-3	-8	10
157	-12	9	-3	0
157	-104	42	9	3
157	-165	59	0	0
157	-71	34	0	2
158	15	7	2	5
158	44	-27	6	6
158	87	20	9	4
158	25	89	9	2
157	13	50	13	2
157	0	6	3	-2
157	-20	28	-3	6
157	-45	33	15	6
157	-77	18	29	0
157	22	20	10	-3
157	50	21	-7	-8
158	26	24	-23	-7
158	29	6	-25	1
158	13	-27	-3	-1
157	75	-29	28	-2
157	158	3	21	6
157	180	15	21	8
157	178	1	63	15
157	79	-9	32	12
157	-27	61	-2	-1
157	-158	65	-9	-17
158	-340	14	-9	-11
158	-253	60	-35	1
157	-132	-11	-46	0
158	-34	-50	-19	-2
157	-9	16	-25	-7
158	-94	27	-3	-8
158	40	73	9	-6
157	98	44	53	-3
157	77	18	64	-2
158	114	19	20	1
158	63	15	31	5
157	-17	13	19	2
158	-23	-3	23	3
158	57	-2	27	6
157	68	15	3	4
158	7	75	3	5
158	-2	72	19	9
157	5	3	1	10
158	44	4	-41	11
157	83	15	-46	7
158	124	6	-19	3
158	104	17	-1	5
158	49	9	0	3
158	15	12	20	2
158	-94	5	38	0
157	-180	7	24	-5
157	-180	9	12	-4
157	-48	14	16	-5
157	-4	10	20	0
159	30	-2	10	3
158	79	-1	17	3
157	26	-11	16	8
158	54	-32	10	12
158	12	-44	10	9
157	-13	-27	9	0
158	2	-21	6	-9
158	-5	-14	-19	-10
158	0	58	-36	-10
158	11	186	0	-5
157	19	171	49	-1
157	-12	59	64	0
157	1	57	32	1
157	-4	67	22	8
158	7	9	50	13
157	10	10	57	15
157	4	19	29	15
158	18	11	-7	13
158	12	11	10	-1
157	12	-10	9	-7
157	11	7	-58	-1
157	10	-4	-74	-7
157	5	-17	-72	-6
157	44	-12	-66	1
158	89	3	-33	2
158	73	6	-11	1
157	41	2	-8	1
158	-3	10	-5	-2
157	-71	12	17	-2
157	-155	24	53	0
157	-129	31	71	-1
157	54	32	53	3
157	58	11	15	4
158	5	11	13	-1
157	21	23	77	3
158	-2	22	67	0
157	37	25	-11	3
158	17	24	-22	1
158	19	19	13	-4
158	25	20	10	1
157	14	22	-3	3
157	-23	20	-8	4
157	-59	23	-22	7
157	-13	15	-22	10
158	8	12	-25	8
158	75	18	12	9
157	121	12	36	11
158	102	15	5	-1
157	122	29	0	-5
157	59	35	27	-10
158	-65	31	48	-8
157	-178	36	41	-5
157	-157	36	20	-9
158	-50	19	-2	2
158	-45	5	-10	-3
157	-23	-20	4	-3
158	-9	-22	-1	6
157	72	13	-3	4
158	137	5	-2	1
158	66	13	-18	-3
158	68	46	-17	-3
158	27	28	-6	0
157	-73	-6	-1	9
157	-111	-42	-6	9
157	-18	-32	-2	10
158	53	51	-8	5
158	-27	131	7	2
157	-57	57	26	3
157	-68	11	34	-2
157	64	48	21	-13
158	173	21	-20	-8
157	98	24	-10	6
158	84	11	31	4
157	19	-39	48	5
157	-118	-27	42	2
157	-259	5	4	2
157	-172	18	-23	4
157	33	37	10	5
158	14	32	5	6
157	56	61	-1	8
157	63	52	12	11
158	9	29	33	11
158	-9	-55	62	8
157	-98	-141	6	-1
158	-51	-28	-43	-3
157	41	15	-21	0
158	99	15	15	-1
158	158	164	-18	4
157	139	150	-18	2
158	124	48	-1	-7
158	83	27	-6	-19
157	66	6	10	-9
157	98	-6	6	3
157	32	-9	18	0
158	-9	1	6	5
157	-5	9	9	9
158	-72	15	19	5
158	-149	22	19	1
157	-202	44	32	4
157	-58	67	33	2
158	44	60	6	-1
158	3	24	-39	4
157	32	15	-24	-1
157	-16	35	17	0
158	48	40	17	0
158	91	19	10	-8
158	11	5	-6	-7
158	-2	1	-14	-5
158	-92	-7	-2	5
158	-150	1	9	9
157	-61	6	26	9
158	94	11	39	14
158	106	24	48	6
158	28	16	43	-14
158	40	13	5	-16
157	52	23	-8	-7
157	92	11	13	0
158	74	4	10	5
158	63	-6	7	-1
158	68	-18	7	2
158	-11	4	20	-7
157	-133	9	9	-9
157	-235	7	-44	4
157	-110	19	-25	5
158	-50	14	17	3
158	-98	24	-4	7
157	-13	18	-4	9
158	-18	21	0	7
158	-8	24	-8	10
158	21	8	-3	9
157	28	-9	9	10
158	66	-19	16	-1
157	89	-7	15	-7
158	118	3	20	-1
158	100	35	11	3
158	69	94	16	4
158	31	86	15	8
158	23	21	16	9
158	14	41	22	3
158	-18	18	21	10
157	-60	-23	30	11
158	-90	30	26	-6
158	-49	9	-9	0
158	-9	23	-44	8
158	49	25	-7	-1
157	75	18	29	-3
158	135	25	44	-12
158	182	14	31	-5
158	80	29	-51	4
158	21	17	-11	-3
158	3	11	54	-4
158	-98	-5	30	-2
157	-175	-15	-29	11
158	-51	4	-86	11
158	53	34	-20	1
157	2	66	16	10
158	14	86	2	11
157	17	5	22	-1
158	40	-64	18	-7
157	19	-84	30	-10
157	62	-82	19	-13
158	135	61	-8	-10
157	8	72	-2	-1
157	-60	60	22	6
158	-59	135	25	12
158	-108	-10	27	5
157	-252	-45	18	-11
158	-237	42	-11	-19
158	-34	-3	-21	-12
157	7	-9	-5	-4
157	-26	37	8	0
158	-9	37	12	5
158	-39	46	18	3
158	-21	49	19	10
157	26	26	27	11
158	34	24	18	13
157	66	24	8	14
158	72	24	-14	8
157	89	11	-33	4
157	75	25	-12	3
158	71	54	-3	7
157	66	45	1	0
158	93	3	17	-6
157	175	9	31	-6
158	167	49	30	-9
157	146	34	19	1
157	21	3	16	0
158	-154	-9	22	-7
157	-209	-13	17	-6
158	-95	-29	7	-2
158	-4	-15	17	9
158	-12	-16	18	8
157	38	9	23	2
158	4	41	22	4
157	-31	9	4	5
157	-74	2	-5	7
158	-14	3	-9	6
158	51	54	14	6
157	43	67	33	10
157	64	22	33	7
158	53	37	31	-3
157	99	52	19	-9
157	54	40	-16	-8
158	9	-1	-81	0
157	-24	-38	-58	-3
158	-44	-13	-4	-4
158	-13	7	-28	4
158	-25	11	24	8
158	-12	27	38	14
158	-13	36	-11	0
158	-10	61	12	-21
157	-14	68	33	-9
158	-17	48	10	6
158	-10	39	10	9
157	-13	18	47	1
158	-2	-17	28	11
158	15	-40	-3	16
158	50	-40	26	2
157	120	-40	-15	2
158	129	-40	-56	3
157	84	-11	-18	-2
158	83	106	-6	-6
158	-25	189	-6	-8
159	-130	111	-4	-3
158	-210	41	6	-1
157	-178	4	22	7
157	-89	-60	37	2
158	-69	-51	42	2
157	12	23	18	5
158	-9	11	-2	8
157	31	-38	8	8
158	1	0	14	-5
157	-3	5	-2	0
157	40	13	8	6
157	46	30	55	4
157	79	9	46	7
158	42	-7	-35	-3
157	55	-31	-34	-6
158	59	9	13	6
158	118	53	20	7
158	86	49	26	2
158	46	17	16	0
157	15	26	1	-6
158	-85	37	-4	-1
157	-160	27	3	-2
158	-129	39	8	1
158	13	44	2	8
159	2	43	13	1
157	37	12	8	1
157	31	6	-6	2
158	-38	17	-11	-2
158	-18	19	-6	2
157	49	24	-11	0
158	159	27	-3	-1
158	148	29	16	10
157	138	17	17	8
157	48	9	34	-6
158	-140	29	33	-10
157	-306	55	-6	-3
157	-229	42	-4	2
157	5	33	18	2
158	-34	30	9	9
157	39	8	10	3
158	113	-35	4	7
158	45	-67	12	-5
157	62	2	16	-4
158	84	5	0	-6
157	117	-18	-3	-4
158	34	45	0	-1
157	46	38	19	-2
158	22	52	39	9
158	-32	35	88	4
158	-54	20	94	-3
157	-71	38	-10	8
158	-11	25	-89	16
158	-13	21	-71	4
158	32	11	-42	1
158	41	12	-3	8
157	92	11	-9	-2
158	102	13	-7	-5
158	82	12	-3	-2
157	141	17	-3	-2
157	93	16	11	-6
158	5	10	14	-2
158	-71	10	27	4
158	-74	-3	15	3
157	-94	-11	8	4
158	-151	-11	0	5
157	-51	-5	15	5
157	-31	51	38	-2
157	-51	106	32	1
157	-13	62	32	6
157	-20	28	28	16
157	25	26	22	15
158	26	27	13	-5
157	10	46	14	4
158	-11	-5	10	9
158	-43	1	17	4
158	-56	28	15	2
157	-27	-14	-6	-1
157	14	5	-14	-5
158	24	5	3	-12
157	74	15	2	-2
157	74	24	-13	-2
157	85	13	-21	0
157	65	26	-21	-4
158	22	25	6	-7
157	-6	25	25	7
157	-40	7	31	6
157	17	-8	22	13
158	75	3	34	22
157	113	7	37	13
157	69	3	19	-4
157	48	13	-25	-20
157	-8	22	-57	-13
157	-142	28	-35	-5
157	-206	24	-17	6
158	-133	33	15	-2
157	-65	41	5	-6
158	-91	31	11	-1
157	3	26	67	-4
158	32	-1	81	2
157	49	-24	39	0
158	82	-9	-35	4
158	116	28	-57	4
158	85	29	-7	-8
158	-98	29	-13	-4
158	-125	35	-13	1
157	-105	40	32	-2
158	-121	38	12	3
158	-11	29	-21	11
158	164	30	-18	7
158	199	18	4	7
157	175	-8	13	6
158	104	-34	41	3
158	16	-27	62	2
157	1	-24	28	0
158	-33	-29	30	-2
158	-10	36	29	-3
158	7	160	26	-3
158	50	139	37	-7
157	60	65	2	-4
158	22	99	-35	4
158	26	41	-72	9
157	40	-57	-58	6
158	71	-132	-2	5
157	35	-114	20	9
158	1	10	25	12
157	-20	-15	29	14
158	-77	-42	37	9
158	-123	28	3	1
158	-16	42	0	-5
157	56	73	2	-2
158	-11	94	4	0
158	-4	65	15	3
157	-29	46	12	10
158	-119	16	16	8
157	-167	16	2	2
157	-8	61	6	-4
158	20	61	8	-4
158	-53	-1	5	-9
158	-22	-3	4	-9
158	-18	9	1	-4
158	34	-1	15	0
158	19	13	19	8
158	44	8	38	7
158	45	26	39	-1
158	55	26	8	-2
157	70	17	13	5
157	59	22	36	-1
157	103	17	10	-14
158	63	15	-44	-6
158	-4	-6	-32	4
157	-27	-24	-22	0
157	-52	9	-41	4
158	-102	59	-15	3
157	-91	21	-6	-4
157	-56	-13	4	-1
157	-18	14	17	-4
157	-5	11	14	7
157	-31	14	-7	7
158	39	14	-19	0
158	128	6	-6	3
157	137	11	-9	4
158	107	7	6	6
158	44	16	31	3
158	8	18	70	2
157	2	14	100	-2
158	30	14	102	-11
157	71	9	47	-8
157	114	14	-43	9
157	122	25	-29	11
157	67	24	7	4
158	-20	28	-12	6
157	-105	26	5	0
157	-129	32	4	2
158	-109	51	1	2
158	-65	52	8	7
158	-94	40	-6	12
158	-103	34	-7	10
157	-80	18	2	10
157	-45	6	26	-1
159	21	-3	-19	-7
157	44	-13	-45	-1
157	58	17	15	-2
158	60	22	39	-5
158	58	14	20	0
157	41	15	-16	-4
158	19	4	-37	-2
158	10	6	-18	1
157	-24	10	2	-4
158	28	14	44	-3
157	127	18	61	2
158	104	23	32	4
158	66	25	52	3
157	45	34	46	1
157	-45	20	-29	7
158	-172	15	-64	5
157	-162	25	-14	-4
157	-3	14	9	0
157	-26	-18	-12	3
158	-41	-56	2	6
158	46	-38	-6	5
158	20	-26	-1	-1
158	22	-21	-11	-2
157	21	27	-11	0
158	-39	141	16	-5
158	-87	192	12	1
158	-18	85	12	-3
158	30	40	17	-5
158	-16	25	30	6
157	-28	-33	45	8
158	-61	-62	41	0
158	-22	-48	17	-6
157	42	40	10	0
157	34	101	15	-4
158	17	39	-7	3
158	49	-9	-12	4
157	130	34	-1	9
157	95	68	-11	7
158	97	67	0	2
157	142	68	6	8
158	136	61	0	5
157	100	-6	6	7
157	68	-54	19	6
157	90	-45	29	5
158	28	24	14	-4
158	13	14	-3	4
158	-23	-49	-2	-6
157	-126	-3	6	-17
157	-201	39	2	-4
159	-182	38	-24	-4
157	-53	15	10	4
157	-69	24	77	10
158	-52	24	88	11
158	-32	7	45	10
158	-28	6	-42	20
158	23	-4	-58	4
157	42	0	-3	-5
158	106	9	-14	10
157	85	32	5	-1
157	43	24	-1	-6
157	5	5	-46	-8
157	-8	1	-36	-10
158	10	-4	-15	-5
157	12	-5	28	1
158	30	5	24	5
158	34	9	21	11
157	98	18	19	10
157	47	35	5	-2
157	-37	43	16	-10
158	-39	50	15	-6
158	-124	44	25	-5
158	-218	36	27	-1
157	-192	30	18	3
158	-27	30	7	6
158	36	28	2	11
157	55	21	5	7
157	90	25	9	2
157	72	19	3	-5
158	23	12	-32	-2
157	-7	15	-8	12
157	-48	22	44	4
157	-106	25	30	-1
157	-32	7	23	-2
157	65	-3	40	-2
157	86	8	29	0
157	69	-7	6	-6
157	123	-1	-2	-4
157	111	11	3	1
158	71	7	2	-4
158	15	12	3	-1
157	-36	7	15	-1
157	33	-6	13	1
158	75	-3	6	4
157	36	4	-14	10
157	-11	5	0	12
158	-7	37	26	4
158	-25	59	2	-6
157	-15	85	-33	-6
158	-34	86	-34	12
158	-32	19	8	10
157	-4	6	4	1
157	0	-3	5	3
157	6	-52	9	3
158	8	5	-3	-5
158	37	80	14	-11
157	47	93	5	-8
158	53	116	14	-5
157	53	55	19	3
157	100	-10	38	-4
158	98	9	45	-2
158	57	7	20	2
158	38	4	8	3
157	-93	19	-1	3
157	-237	7	-9	7
157	-224	-4	-24	9
158	-71	-8	1	0
158	-63	-21	5	3
158	-135	-18	-6	-2
157	-88	11	10	-2
158	-24	24	7	12
158	30	14	-9	8
157	33	19	-27	8
158	43	31	-9	6
158	65	18	33	0
158	61	-7	61	4
157	10	-12	65	-8
157	-31	-1	-19	-1
157	22	17	-45	7
158	110	17	14	-6
158	137	42	5	2
157	10	67	14	2
157	-56	30	20	2
158	1	29	3	2
157	-24	29	10	-2
158	16	15	3	1
157	97	22	8	-1
158	118	16	0	2
157	169	17	9	-1
158	156	7	15	0
157	126	1	9	-1
158	70	16	12	2
157	14	24	2	4
157	-22	22	-1	0
159	-125	18	-2	1
157	-183	17	9	-1
157	-115	24	4	-4
158	-30	42	16	2
158	-54	64	41	2
158	-42	37	49	8
157	-39	-23	29	16
158	-44	-69	-11	10
157	-16	-33	-32	-2
158	-10	47	-47	-9
157	15	14	-7	-1
157	20	-10	15	3
158	38	30	7	-4
157	41	19	25	-2
158	78	30	11	-2
157	75	40	13	-1
157	17	36	9	5
157	-1	36	27	6
157	25	23	22	-5
157	86	9	-48	-4
158	72	-6	-34	-6
158	60	15	19	-8
157	14	20	38	1
158	-85	2	44	2
158	-208	-27	33	4
158	-249	-46	16	7
157	-176	-31	-32	11
157	-172	-25	-17	2
158	-67	-9	24	-5
157	18	92	1	1
157	66	129	17	-1
157	186	36	0	-5
158	251	56	-20	3
158	219	36	25	7
158	93	51	40	7
157	0	122	15	0
158	-86	61	8	-2
159	-178	82	6	-4
158	-124	34	-4	-1
157	69	7	5	9
158	172	24	9	13
157	114	20	8	18
158	16	35	5	4
158	-27	4	-1	-2
157	3	-40	-9	0
158	33	-48	-3	-4
158	34	-39	9	-2
158	38	-47	12	-6
157	35	59	10	-2
157	33	17	-1	0
157	22	-31	-4	7
158	9	42	1	7
157	13	2	3	10
157	46	13	0	14
157	120	9	2	10
158	102	13	6	7
157	28	15	40	8
158	-30	-9	83	4
158	-132	-8	34	-10
158	-255	6	-36	-4
157	-243	12	-9	-6
157	-34	-9	16	-14
157	55	15	9	-5
157	43	51	0	-6
158	41	66	-24	-1
158	-14	39	5	-2
158	-19	24	-8	0
157	-8	24	-7	-1
158	-28	23	14	-2
158	-38	42	-8	2
157	-46	45	-10	2
158	-73	60	2	-1
157	-21	34	43	8
157	-7	-17	31	13
158	-45	-53	3	12
158	30	-71	5	11
157	178	3	12	-5
157	269	2	-6	-1
157	156	-45	-19	-1
157	47	47	9	2
158	54	73	1	6
157	-113	17	12	-5
157	-161	11	13	-7
157	45	54	-4	-21
157	112	93	3	-10
157	83	29	8	1
158	18	-1	9	7
157	-48	-22	6	9
157	-40	-40	19	9
158	-30	-6	23	9
158	-20	1	27	-1
157	-20	44	5	1
159	-8	131	15	3
158	-17	140	42	-2
157	-30	32	20	4
158	-16	18	-16	11
158	-9	14	-17	12
158	12	-18	30	7
157	25	30	16	-4
157	42	83	-8	-8
158	33	34	-4	0
157	24	-45	-5	-7
159	2	-9	1	3
157	-36	-11	5	6
158	27	4	5	0
157	92	13	2	1
157	44	19	14	1
158	39	36	2	6
158	-4	5	-5	8
157	-109	17	1	6
158	-162	43	-2	4
158	-52	29	5	7
157	62	15	9	4
157	22	14	18	3
158	38	-15	18	6
158	37	-26	10	9
157	54	-46	13	4
157	34	-39	18	2
158	-36	8	14	-2
159	-32	46	35	-8
158	-108	90	57	-4
158	-149	117	16	1
157	-6	114	-53	4
158	64	71	-17	2
158	13	11	17	-5
158	-5	-5	-17	-5
157	55	-21	14	-5
158	197	-58	-3	-6
158	206	0	-7	-8
158	116	2	10	-7
158	-4	-30	-2	0
158	-44	18	16	2
157	-29	-7	4	6
157	-50	-5	6	-2
158	-52	3	2	-2
158	-65	5	6	0
157	-1	34	2	-9
157	-6	55	-12	3
157	-6	70	25	1
158	-9	-1	49	4
158	-7	-13	34	17
158	58	19	15	17
157	40	29	16	9
157	31	18	9	-1
158	21	-4	-22	-5
157	57	-17	-22	-6
158	114	-31	-5	-7
158	86	-29	-13	-7
157	38	-22	2	0
157	-15	51	13	-3
158	-123	158	21	7
158	-237	112	37	9
157	-174	16	20	-3
157	49	42	7	4
157	62	62	9	2
157	17	51	7	2
158	22	-23	-6	4
157	-16	-95	-2	10
158	7	-45	8	4
157	-51	87	12	-4
157	-94	94	12	6
157	-18	-36	6	10
158	97	33	-6	0
157	61	102	-12	-1
158	28	47	-8	4
158	15	15	-6	0
157	-13	7	-19	-2
158	10	17	-15	2
157	-58	31	23	-2
157	-14	24	27	-7
158	26	-2	62	-1
157	21	4	75	-4
157	56	-12	-1	3
157	81	5	-17	10
158	83	8	12	3
158	-15	-20	-2	8
158	-56	-16	-8	7
158	-8	-23	6	7
158	15	-24	5	7
158	45	-16	0	7
157	67	6	10	9
158	9	42	22	4
158	26	74	21	-4
157	83	99	11	-10
158	45	90	-3	0
157	-35	71	1	2
157	-63	36	23	0
157	-29	-7	51	-1
157	-7	-23	28	-2
158	4	-17	-45	12
158	-8	7	-31	9
158	-34	7	20	-4
158	-37	14	6	0
157	36	17	-4	0
158	89	11	-20	-3
158	65	6	4	2
158	86	6	20	-1
157	48	10	-6	-1
158	-72	0	-7	-4
157	-117	8	-16	-12
158	-44	22	4	-7
158	-50	25	24	-1
158	-81	5	24	7
158	-5	-18	31	11
157	-16	-18	30	3
157	-3	7	8	-1
157	19	22	-29	-3
158	10	-1	-23	-11
157	55	14	2	1
158	47	85	0	6
158	92	116	4	-1
158	110	89	18	-1
158	20	79	24	0
158	-12	66	19	-2
157	-43	50	-9	-2
158	-92	-20	-14	0
158	-135	-93	10	-5
157	-70	-155	23	2
158	-37	-104	25	13
159	-140	11	15	16
158	-132	30	26	13
158	-19	150	34	-2
158	9	115	14	-2
159	58	80	8	-2
157	210	106	13	0
158	277	-1	5	0
158	199	66	-5	0
157	104	70	1	-1
157	62	14	12	1
158	-20	-47	13	2
157	-28	-80	13	-2
158	-23	-8	7	1
158	-51	13	8	-3
158	-17	-32	0	3
158	-8	-21	-6	8
158	-8	49	-10	4
158	-37	12	-22	3
158	-33	17	8	5
157	-5	27	23	7
157	19	19	10	-1
158	34	23	22	2
157	23	0	46	7
158	49	7	32	2
157	107	25	-3	2
158	121	42	6	0
158	19	41	13	11
157	-7	49	15	17
158	-29	46	64	4
158	-145	21	3	4
158	-204	-2	-118	-2
158	-119	3	-50	-4
157	2	25	3	-5
158	-33	21	3	-3
157	-9	21	35	-4
158	-11	15	5	3
158	-11	6	-15	4
158	19	10	27	-3
158	2	9	92	-2
159	64	6	37	5
158	102	6	-37	-2
157	82	13	-3	-4
157	53	14	-30	0
157	41	4	-12	0
158	-40	3	24	9
157	-97	-2	5	4
158	-68	-1	22	-2
157	-19	10	-1	2
158	-19	27	-7	4
158	-11	36	6	3
157	24	43	28	1
158	51	45	27	3
158	140	37	-15	3
157	118	39	-10	7
158	-20	34	2	4
157	-64	27	6	4
157	-7	24	26	7
157	15	15	48	8
157	5	16	9	-2
157	-40	3	-57	-5
157	-113	-17	12	-5
157	-64	-12	61	-2
157	-3	17	-5	-9
157	23	47	1	-15
158	47	69	-9	2
157	68	16	-39	10
158	84	-1	-11	18
158	77	19	16	0
158	59	15	-15	-5
157	5	32	-16	9
157	-66	17	1	-4
157	-85	25	10	-9
157	-11	19	69	-1
157	25	24	64	4
158	44	19	33	5
157	73	-5	4	8
158	75	-5	-9	3
158	55	15	21	-2
158	1	24	9	-2
157	-30	21	-7	-4
158	-6	25	-9	2
157	12	-6	-3	2
157	-12	-9	57	7
158	-21	-19	108	7
158	-20	-6	64	1
158	-1	33	-2	-2
158	91	11	-34	-14
158	144	-32	-50	-7
157	120	-19	-42	2
158	69	15	-60	2
157	-48	49	-25	3
158	-219	80	-5	4
157	-231	29	-20	-2
157	-77	83	22	-5
158	-33	139	26	7
157	-49	49	9	1
158	-40	15	12	-1
157	-36	35	6	8
158	11	23	-22	9
157	16	4	-18	9
157	-31	5	-8	2
158	-53	-41	25	4
157	-32	-66	52	2
158	20	-35	-15	6
157	52	-32	28	3
158	94	-26	71	-3
158	112	56	-22	-1
158	120	187	-30	-8
158	132	137	1	1
157	90	-1	3	1
158	23	-28	24	2
158	25	-25	12	3
158	66	-3	19	4
157	23	30	17	9
157	-5	29	5	6
158	-31	15	14	7
157	-124	-18	22	10
157	-89	3	40	7
157	-4	64	35	0
157	-68	40	1	-5
158	-86	19	-15	-12
158	-14	13	3	-7
157	18	11	-1	0
158	77	18	5	-3
157	64	2	26	4
158	118	10	24	6
158	154	10	28	-1
157	80	21	-3	-4
159	5	17	-10	-3
157	-69	10	-2	-1
158	-26	11	-10	2
157	-34	12	1	2
158	-30	19	35	6
158	92	14	49	6
157	126	18	13	1
158	61	17	-2	12
158	12	7	-11	10
157	-116	-1	-18	9
159	-316	-3	-1	4
158	-320	-4	-4	-4
157	-48	24	-1	-5
157	34	25	24	-7
157	-14	11	40	-6
158	65	17	3	-1
158	56	33	-40	-4
157	103	70	-29	-5
158	72	61	18	7
157	44	31	36	10
158	-11	40	8	13
157	-71	54	-15	7
157	-18	18	-10	-6
157	-4	-74	-10	-1
157	88	-54	-1	-2
157	115	-8	16	0
157	68	-81	31	0
157	56	-7	37	-3
158	43	69	3	-3
157	6	100	-1	6
158	-38	126	14	7
158	-25	16	-3	8
158	6	21	1	10
157	30	30	16	0
157	77	5	27	-9
157	72	25	18	-22
157	24	11	-36	-7
158	51	27	-51	-6
158	-41	21	19	-4
158	-240	10	81	7
157	-222	7	65	6
157	-61	12	-1	9
158	-37	18	-49	11
157	18	20	-26	5
158	94	13	18	2
157	151	-5	8	8
158	234	1	16	-1
158	130	9	22	-5
158	58	19	14	-6
158	-11	26	13	-4
158	-15	17	-9	3
158	0	-21	-22	0
157	-40	-23	-15	2
158	-6	-19	23	1
158	82	-45	37	4
158	218	-10	66	9
157	100	130	122	2
157	1	188	61	11
158	-111	30	-108	16
157	-301	-17	-129	-2
158	-366	3	0	-9
157	-186	25	-26	-4
158	19	49	-12	-2
158	-53	-22	20	7
158	20	17	8	-3
158	15	54	22	-5
159	40	60	4	1
158	61	54	25	-3
158	48	32	0	4
158	92	24	10	7
157	-8	10	18	7
158	10	19	24	-1
157	12	31	43	-8
157	13	23	12	-5
158	39	25	4	0
158	58	47	13	-3
157	48	25	34	10
158	50	12	5	14
158	55	19	-10	6
157	12	31	-27	0
157	67	10	-44	-2
157	63	-68	-4	-2
158	-32	-48	10	-2
158	-100	0	17	7
157	-158	-77	14	7
157	-198	-46	-2	4
158	-54	30	0	7
158	159	7	26	4
157	181	52	46	8
158	175	34	33	14
157	101	33	26	9
158	20	46	28	4
158	38	22	-3	-3
158	116	49	-16	-6
158	180	-1	0	-2
158	85	-29	3	-5
157	80	27	6	-7
158	-13	-12	-16	-4
158	-223	-6	-20	-5
157	-273	43	-1	0
158	-154	8	10	-1
157	-96	29	41	0
158	-117	28	68	6
158	-27	36	104	-2
157	-42	49	65	-1
158	9	76	-56	-5
158	22	51	-73	-7
157	1	11	-9	-2
158	29	23	-42	-2
157	17	-13	-26	4
158	51	-18	2	9
159	37	-28	-11	6
157	38	-23	6	9
159	20	-36	-9	13
158	20	-25	7	4
158	35	6	51	4
157	18	22	83	4
157	11	50	26	-1
157	43	139	-26	-1
158	64	196	-6	-3
158	22	57	5	1
158	-6	-8	-5	3
158	-46	-9	-13	-7
157	-51	-12	0	-1
159	-51	15	0	7
157	-56	7	5	1
157	8	33	22	-3
157	58	49	15	-5
158	128	71	-16	-7
158	183	57	2	-6
158	99	13	12	-3
157	-30	-3	-8	6
157	-105	8	2	4
158	-102	17	-32	7
158	-53	5	-13	6
158	61	9	27	-1
158	127	5	16	-2
158	119	-17	16	3
157	75	-63	25	-1
157	-40	-89	14	-5
158	-68	-26	1	1
158	-94	38	30	-4
158	-17	45	21	0
157	31	23	23	3
158	-24	15	27	5
158	93	43	13	3
158	38	60	16	1
157	-121	34	-1	6
158	-207	24	-8	0
158	-140	37	10	1
158	5	30	51	7
157	-50	31	82	7
159	30	6	39	10
157	88	-29	-96	18
158	97	-35	-117	7
158	119	10	-1	-6
158	72	34	-2	-1
157	5	-3	19	-4
157	-31	76	33	-3
158	1	136	11	-3
157	-36	94	26	7
158	-40	42	18	4
157	-67	-65	51	-7
157	-62	-28	26	-4
158	-17	107	-41	-5
157	28	3	-27	2
158	35	-59	15	-1
158	-25	4	10	-2
157	-2	0	45	8
158	6	8	45	3
158	-13	8	-25	-4
157	-28	9	-10	-1
158	-35	2	17	2
158	15	-5	8	-4
157	86	10	2	7
158	116	13	3	7
157	159	19	-9	8
157	266	18	0	-2
158	315	26	22	-7
158	282	45	8	-3
158	145	54	29	-6
158	-80	47	27	5
158	-185	41	-19	20
158	-255	25	-22	11
157	-358	-2	5	2
157	-231	-34	-4	13
158	-70	22	-7	7
158	-58	43	-8	1
157	-16	-27	-10	3
158	33	18	17	2
157	28	26	33	4
158	-11	13	58	0
157	-21	31	27	0
157	-13	32	-47	13
157	-3	40	-66	12
158	-49	18	-8	0
158	-43	21	33	-1
157	11	-6	35	4
157	55	-36	73	-5
157	112	-42	52	-15
158	137	-41	15	-10
158	143	-23	20	-6
157	100	69	-2	-3
159	75	201	2	-2
157	59	149	-6	8
158	9	61	-3	12
158	-1	79	13	9
158	-41	55	4	2
157	-54	22	-6	1
158	-53	-18	-23	5
158	-13	-90	-7	-1
159	106	-77	6	-5
158	101	-5	2	-8
158	60	-26	5	-4
158	125	-24	-1	-3
158	96	29	-1	1
158	-122	39	1	2
159	-296	98	11	-2
158	-380	62	13	5
157	-185	2	21	8
157	37	17	25	5
157	0	-13	23	10
159	60	-6	27	13
158	74	-4	24	8
158	60	-14	2	-6
158	83	-5	-27	-23
157	80	-18	-26	-13
158	63	-4	-2	-7
157	45	49	6	-6
158	70	97	15	2
157	42	49	38	-2
158	39	-9	51	0
158	17	11	8	1
159	2	19	-55	11
158	-10	23	-17	2
157	-37	19	13	-4
157	-21	22	-6	3
158	-15	23	26	8
157	-7	22	24	15
157	-8	31	35	0
158	-9	26	65	-7
158	-10	19	51	-6
158	-4	9	-23	2
158	6	23	-63	-1
158	0	15	19	0
158	-8	-7	14	11
158	-7	-8	-17	4
157	9	7	-30	3
157	9	29	-42	-1
157	1	28	-4	13
158	3	25	28	12
157	5	22	65	-9
157	9	38	-20	-5
157	-6	35	-66	4
158	-15	23	-10	8
157	-14	9	-5	13
158	-5	5	12	12
158	-3	-4	45	1
158	-11	-13	43	4
158	1	2	41	3
157	27	-4	39	4
157	27	8	35	1
157	51	32	4	-9
157	82	26	-40	-3
158	112	2	-8	-7
158	236	16	28	-14
157	146	62	6	-12
157	-42	59	-1	-9
157	-92	8	26	-1
157	-148	-5	42	-6
158	-134	31	37	-2
158	-128	44	21	7
158	-43	58	18	9
158	-88	57	43	11
157	-89	24	57	7
157	-13	32	31	3
158	-6	26	-48	2
158	47	10	-90	3
157	-30	2	-79	-11
157	1	17	-48	-13
157	8	37	2	0
158	13	13	-7	3
158	33	-22	-16	4
157	77	-37	3	1
158	113	4	2	2
158	43	36	3	3
157	95	33	12	-1
158	113	17	20	0
158	69	3	8	5
158	21	-68	6	7
157	-32	-82	9	5
158	-30	106	25	4
158	-27	94	25	4
158	-52	-42	11	3
158	-42	-4	-7	12
157	0	3	-2	16
158	37	85	59	6
158	-4	93	50	9
157	-40	37	20	5
158	22	40	51	-1
157	48	12	37	-4
158	27	46	16	-5
157	34	16	-5	0
157	79	24	-15	8
158	114	39	9	7
157	27	57	15	11
157	-1	69	8	4
158	24	47	9	-16
158	-68	35	28	-7
157	-86	6	22	4
158	4	-9	-22	5
157	89	-52	-15	1
157	51	-90	7	-9
158	34	-69	-40	-12
158	-42	-2	-55	-16
158	-219	-15	-6	-3
158	-241	-8	25	1
158	-121	18	75	7
157	-23	5	104	7
158	-53	1	-6	5
157	-6	5	-66	10
157	43	29	29	2
157	110	49	10	-2
157	116	62	-16	1
158	34	51	14	7
157	63	52	-12	0
158	37	51	-20	3
158	43	40	-25	8
158	33	22	-1	8
157	24	11	0	15
158	42	12	5	13
158	25	6	35	6
158	20	4	12	-3
158	3	9	-59	-4
158	15	28	-14	-3
158	11	24	99	-4
157	0	29	80	-9
157	-21	32	27	-6
157	-18	26	-16	-9
157	-2	26	-16	-8
158	4	23	4	-7
157	3	8	6	0
157	7	-32	14	1
158	17	-35	22	0
157	9	-16	23	4
157	1	24	-7	-2
157	-4	43	-7	2
157	-9	9	25	0
158	-8	30	6	-4
158	-20	64	8	-1
158	-33	38	23	6
158	-23	21	-26	15
158	-7	52	-54	18
158	-1	33	-43	13
158	5	34	-8	8
158	3	43	4	1
158	-37	3	-7	0
157	-81	-7	15	7
158	-94	5	18	10
157	-60	17	29	8
158	99	7	22	4
157	254	17	2	-8
157	333	15	28	-14
157	278	15	63	-4
158	142	8	35	-5
158	-56	-2	-16	-3
158	-259	0	-35	-1
158	-236	-15	-16	-2
157	-184	-39	18	1
157	-45	-40	46	3
158	-17	-35	64	15
158	-40	-34	23	8
158	-14	54	24	-16
157	-34	188	52	-19
158	23	195	9	-8
158	9	70	-28	-2
158	-2	10	-10	3
158	-14	-3	-4	2
157	-3	-16	-58	3
158	-8	3	-62	0
157	14	2	-18	2
158	58	16	16	3
157	45	11	20	8
157	95	11	32	13
158	123	8	96	4
158	67	-9	59	4
157	-7	-2	-48	19
157	-52	3	-42	9
158	-59	-3	3	-17
158	-35	-3	-6	-4
158	-30	15	26	6
157	-11	35	58	1
157	-1	56	37	-2
158	10	87	-60	-1
158	46	94	-87	6
157	42	68	-5	5
157	12	54	-9	4
158	-61	29	11	6
157	-123	24	15	1
157	-27	18	8	0
157	117	3	13	-2
158	151	9	5	-8
157	178	-24	28	-2
157	169	-68	30	-1
157	89	-47	54	-5
158	-12	0	44	-2
158	-11	6	10	-2
158	-21	14	2	-7
158	-58	30	13	1
158	-20	72	38	-2
158	-102	81	49	-5
157	-39	8	9	9
158	64	-31	-33	15
158	38	-31	2	7
158	-8	13	18	4
157	-84	-4	-16	4
157	-85	-66	-23	3
157	-3	-10	1	2
158	70	49	-4	-1
158	48	63	-3	-1
157	20	36	8	1
158	27	-10	1	7
158	-1	-14	8	4
158	-109	7	1	2
157	-146	47	-1	2
157	11	49	-11	7
158	-2	113	-15	6
158	-62	97	-11	0
158	-13	15	-1	-1
157	-60	-14	1	-7
157	10	-38	-6	-1
158	38	24	13	-4
157	-7	-4	25	-6
158	-9	-29	47	-6
157	-8	36	54	0
157	18	21	57	7
158	3	19	65	10
157	11	17	46	13
159	42	7	0	5
158	57	7	-26	-12
157	59	13	5	-8
157	52	41	2	4
157	46	44	-24	12
157	26	36	-20	6
157	-5	24	5	-6
157	-13	18	-7	6
157	0	25	-8	0
157	12	10	3	-4
158	6	-9	39	-1
158	-56	9	71	-4
157	-143	10	-16	-1
158	-75	19	-68	8
158	14	26	-14	8
157	46	-2	2	1
157	129	14	8	7
158	167	49	33	2
158	205	96	7	10
158	180	74	-14	8
158	102	12	-7	0
157	19	23	1	-9
158	-22	11	-3	-2
158	-55	4	1	4
158	-172	9	3	-6
157	-162	11	-13	0
157	-89	27	1	-7
157	-79	23	19	-9
157	15	24	14	-3
157	157	12	8	-1
158	139	-8	21	-1
157	110	-32	30	4
159	117	-36	31	11
158	-62	-37	24	9
158	-242	-42	5	9
158	-174	13	-7	-1
157	-64	152	-3	-7
157	-81	152	2	-7
158	-86	33	4	-5
158	-77	23	48	-2
157	-11	19	84	3
158	44	23	25	7
158	63	18	-62	13
157	117	-1	-25	7
157	50	13	46	0
157	-11	-1	-8	8
158	-35	-12	-29	5
157	-10	-21	-27	4
158	-1	-11	-33	2
157	11	4	-9	8
158	66	-18	8	7
157	51	-39	-8	-1
158	83	-2	-25	-8
157	99	63	12	-13
158	87	105	12	-8
157	65	60	13	-5
158	38	-5	12	0
158	5	15	15	7
158	-22	22	25	4
158	-3	22	5	3
159	-1	23	17	5
158	4	3	33	1
158	10	16	34	2
157	-28	9	7	7
158	-84	5	6	2
157	-75	-9	6	7
157	-73	-24	-1	1
158	-94	-10	12	0
158	-58	-7	1	4
158	92	9	9	-1
158	161	51	21	3
157	84	115	50	7
158	121	104	58	16
158	121	2	4	20
157	122	-54	-44	-3
158	92	-10	-4	-25
158	22	57	48	-5
157	-56	14	27	-8
158	-147	-50	-9	-3
158	-175	9	-2	-2
158	-137	99	6	-10
157	-14	131	-14	0
158	-49	79	33	4
157	-39	34	45	7
157	-47	67	28	0
157	-59	41	1	9
157	28	14	-21	4
158	21	14	-3	3
157	40	20	-20	3
158	8	26	-17	7
159	-15	-11	6	3
157	-36	-13	-3	1
158	-6	-20	-14	4
158	69	-81	0	-5
157	78	-139	17	-1
157	63	-87	19	1
158	58	-17	1	7
158	49	-19	-13	7
157	-26	131	-4	3
158	-39	169	5	-1
159	-52	29	18	0
158	-82	25	42	3
157	-32	7	50	6
157	15	6	43	1
157	48	7	38	-5
157	99	36	-14	-8
158	124	73	-50	-7
157	126	21	-12	10
157	87	6	-6	11
158	13	13	-20	7
157	-20	24	0	3
157	8	21	20	-4
157	58	12	37	-4
158	78	25	24	0
157	44	26	2	8
157	-8	9	27	3
158	-56	-35	-11	-2
158	-126	-31	-102	1
158	-157	14	-24	-9
158	-56	47	38	-3
158	7	22	8	-1
157	-22	3	22	-4
158	0	54	13	-2
157	-17	53	26	2
158	2	27	20	2
157	13	55	21	3
157	-5	32	19	9
158	22	3	9	15
158	19	-2	32	15
157	0	-14	17	-13
157	-45	15	5	-25
158	-89	40	-19	-4
157	-68	31	1	-1
157	46	30	31	-2
158	95	36	26	2
157	44	1	24	1
157	89	-29	-15	4
157	130	-20	-55	8
158	86	-12	-28	4
157	95	8	-1	2
157	47	49	4	0
158	-39	98	27	0
158	-64	99	31	10
157	-133	75	48	12
158	-181	65	-9	7
158	-26	32	-91	7
157	81	-11	-9	-12
158	42	-63	80	-20
157	44	-43	13	-7
158	-11	21	1	0
157	-5	39	23	3
157	-54	52	-1	-4
158	-121	-8	26	0
158	-25	-49	38	-2
157	35	15	51	-4
158	58	22	23	7
158	11	5	-1	7
158	11	8	1	14
157	114	17	19	9
158	102	10	28	4
158	35	-6	-3	4
157	19	-5	6	0
158	21	-13	12	-7
157	16	-9	-3	-6
157	-21	-17	-18	3
157	11	-19	-7	1
158	89	-16	10	4
158	69	41	15	6
157	1	160	24	2
157	-100	137	13	4
157	-188	29	-9	3
157	-249	36	-10	2
158	-142	28	-6	13
157	105	-7	-34	12
157	144	1	-11	10
158	218	2	34	11
158	179	26	6	2
157	1	16	-18	0
158	-23	-15	-12	-9
158	-16	7	8	-8
157	12	54	5	-2
157	-35	65	12	-10
158	-17	69	19	-9
158	-12	123	18	-6
157	0	100	15	-3
157	19	-25	-1	0
158	17	-57	-2	2
157	50	-15	5	1
157	44	5	13	3
158	47	-39	5	-4
158	-44	-55	14	-4
158	-105	-19	22	3
157	-100	-6	16	4
158	-158	29	24	4
158	-111	23	10	-5
158	84	41	3	-7
157	186	72	25	4
158	124	63	63	13
158	64	51	107	11
157	-4	-6	77	5
157	-43	-46	-24	6
158	-12	-35	-72	3
157	-11	1	-65	11
157	-24	4	-25	11
157	-15	15	35	14
158	8	24	19	12
157	25	17	-12	-7
158	27	1	-27	-3
157	18	-7	-23	-14
158	15	16	-11	-7
158	18	9	-44	6
158	8	21	-24	0
158	-38	75	6	2
157	-45	76	37	3
158	-7	6	28	3
157	5	11	4	-1
158	22	27	39	0
159	23	15	26	-2
157	26	28	22	4
158	32	18	-17	3
158	17	22	-3	1
158	-1	12	52	4
158	-9	10	10	-4
157	2	13	-22	-5
158	8	16	-21	-2
158	11	16	-15	-2
157	13	7	-7	0
158	8	-3	1	7
158	-21	1	6	2
157	-45	24	9	1
157	28	29	12	8
158	125	35	32	12
158	74	32	50	8
158	9	35	53	2
158	50	39	37	-6
157	2	42	4	-10
158	-96	41	15	-7
157	-28	27	25	-3
158	122	14	-14	7
158	133	-4	-62	12
158	8	-17	-30	11
158	-164	-22	16	3
158	-227	-24	3	-3
157	-118	-3	2	-7
158	-38	29	32	-2
157	63	64	21	-2
158	90	33	-8	2
158	45	37	4	5
158	30	97	10	-11
157	-18	37	7	-5
158	-36	-17	-2	0
158	-18	-30	-2	-4
158	-6	-38	18	2
158	-58	-43	30	-5
157	-60	37	16	-2
157	20	171	-4	3
157	65	91	0	9
158	35	0	13	0
158	30	24	19	-2
157	53	3	15	-1
158	48	14	-11	0
158	35	10	-19	6
158	25	-9	-20	-1
157	74	-6	16	-1
158	125	14	28	4
158	80	45	-43	13
158	-2	7	-48	16
157	-2	-22	37	1
157	-61	0	77	-5
157	-226	-1	59	0
158	-194	13	27	3
157	53	72	8	2
157	23	106	22	1
158	-46	117	15	-1
157	121	103	5	1
157	137	7	1	2
157	97	-147	5	2
157	-73	-155	21	10
158	-229	19	2	7
157	-126	52	-20	9
157	-9	-21	6	-1
157	75	-33	26	-14
157	151	6	57	-19
158	194	21	56	-16
157	166	42	-55	-1
158	124	100	-59	2
158	48	36	-15	5
157	-2	6	-26	6
158	-6	9	-17	5
157	-63	-18	-12	7
158	-82	0	6	3
158	-34	31	18	3
157	-42	47	16	-1
158	-62	24	10	-1
157	-42	49	3	2
158	-17	51	-1	9
158	-5	24	-4	2
158	-18	24	8	-7
157	0	27	5	-1
158	34	39	16	2
158	48	18	33	12
157	46	13	23	8
158	25	5	4	6
158	3	-3	4	10
158	-28	-34	31	1
158	-45	-54	7	-4
157	-29	-41	-61	2
157	3	-33	-42	2
157	5	9	57	2
158	-2	98	81	5
157	0	167	49	-4
157	-8	90	15	2
158	9	18	-15	-1
158	5	44	-11	1
158	5	38	-10	-1
157	3	9	7	-1
158	0	2	19	13
158	6	12	17	-2
157	8	-1	7	0
158	30	-8	10	0
157	71	7	15	0
158	24	3	2	4
158	-31	7	11	10
158	99	9	4	8
157	121	5	5	3
158	74	6	10	0
158	107	12	8	-4
157	-88	14	10	-1
158	-344	8	4	0
158	-348	20	-6	2
157	-167	28	-8	2
158	-34	10	9	10
157	113	-1	41	12
158	183	10	79	10
157	196	28	40	2
157	169	44	-65	-1
158	27	46	-73	-3
157	-17	42	2	-10
158	-7	43	8	-4
158	27	33	18	-5
158	26	15	-6	-4
158	22	-7	-48	-14
158	-17	-8	-6	-16
157	-28	14	28	-5
158	7	16	14	-2
158	1	22	8	4
157	48	23	35	6
158	46	8	13	13
158	-22	-23	13	9
158	-45	-38	24	7
158	59	16	27	14
157	171	30	68	15
157	107	26	57	5
158	32	64	8	-8
157	-47	24	-63	-5
158	-170	8	-81	-5
158	-237	6	-5	-9
158	-156	-38	24	-6
158	77	69	6	2
158	89	88	10	2
158	55	55	-16	2
158	64	65	-8	0
158	37	4	37	-5
158	94	19	45	-2
157	-7	15	16	0
158	-68	45	-23	5
157	-23	41	-11	8
158	-117	43	5	13
158	-207	41	-2	12
158	-85	-2	1	2
157	166	-28	13	-6
157	141	-83	17	0
158	59	-24	30	6
158	48	-12	21	13
157	21	-46	13	4
157	35	19	26	-6
157	-45	-31	7	2
157	-16	-87	-2	1
158	-1	-61	-9	-1
158	11	19	0	0
158	41	98	33	-3
157	21	60	37	-7
158	41	125	30	-7
157	38	170	10	0
157	42	121	-2	3
158	30	74	2	-3
158	17	0	13	1
158	15	8	13	9
157	-12	-1	-6	13
158	-35	1	-13	7
157	-20	26	-15	-4
158	-58	19	-15	1
158	-70	47	9	6
158	-5	47	50	11
157	43	30	72	-7
158	47	-12	33	-9
158	12	-24	-82	1
158	-14	-41	-59	-10
158	-7	-66	4	-5
157	40	-46	-16	3
158	51	-40	15	5
157	25	-27	16	1
158	64	8	12	-2
158	120	70	-13	-1
158	94	120	-19	-1
158	37	142	14	0
157	15	47	8	9
158	-95	-13	25	11
157	-216	14	21	12
158	-196	2	23	10
157	-12	6	17	-1
158	23	6	3	-2
158	-71	-1	9	-17
157	-34	0	0	-21
158	2	62	-25	-1
158	-24	57	-28	0
158	-112	30	-6	3
157	-90	31	-2	17
157	30	19	38	13
157	87	52	19	9
158	67	37	31	4
157	74	23	68	-1
157	44	15	-27	11
157	44	8	-27	7
158	58	-20	30	0
158	96	-76	-16	2
158	136	-59	-27	0
157	51	-19	22	-1
157	46	-14	31	3
157	40	-1	23	-3
158	-3	16	22	-1
158	0	42	2	-3
157	6	82	-11	-7
158	8	91	-8	-6
158	-22	84	4	0
157	-35	12	11	6
157	-35	-47	18	7
157	-37	-64	21	12
158	-41	2	10	0
157	-26	81	1	-4
158	20	-6	15	0
157	57	-35	37	-1
157	55	-39	29	7
158	33	4	-12	3
157	32	89	10	-3
158	71	38	26	0
157	67	50	8	-3
157	26	58	29	0
157	53	15	39	4
158	-73	27	55	-1
