File Name: not saved
Channel 3: 'EKG', 22750 values, raw ADC, no filters.
Channel 4: 'FCR_EMG', 22750 values, raw ADC, no filters.
Channel 5: 'FCU_EMG', 22750 values, raw ADC, no filters.
Channel 7: 'ECU_EMG', 22750 values, raw ADC, no filters.
Channel 8: 'ECR_EMG', 22750 values, raw ADC, no filters.

158	13	19	2	5
157	25	16	12	4
157	12	18	5	12
158	1	17	6	15
158	-18	17	-14	7
158	-25	14	-32	10
158	6	13	-16	-4
158	16	15	-4	-6
157	16	13	-8	2
158	1	12	9	3
157	-28	19	0	9
158	-18	29	10	1
158	12	34	15	0
158	24	26	6	-2
159	55	11	18	1
158	67	19	23	1
158	57	20	28	-2
158	47	14	20	0
157	28	19	16	-3
157	8	16	14	-7
158	-40	16	29	-4
158	-55	15	30	2
157	-35	18	21	2
158	-17	24	10	0
158	-1	23	0	2
158	16	19	2	4
157	17	18	-4	-1
158	13	21	6	-1
158	21	20	19	6
158	5	23	18	6
158	5	19	13	9
158	7	15	-15	6
157	9	16	-37	0
158	15	15	-6	-10
158	1	9	8	-5
158	-3	10	-8	3
158	-2	17	-13	-1
158	-4	19	-2	3
158	0	17	21	9
158	-2	11	15	4
158	-5	16	15	-1
158	-13	22	10	0
157	-18	17	29	-3
158	-20	15	51	-5
157	-33	9	14	4
158	-58	19	-55	4
158	-32	22	-29	2
157	9	17	18	1
157	24	23	-9	7
158	59	26	8	10
158	78	27	8	3
158	73	31	10	-9
157	49	30	26	-2
157	20	20	21	-2
158	9	15	23	-13
158	1	9	-2	-13
158	-10	12	-11	-10
157	-2	14	8	-5
158	8	2	14	-2
157	3	-1	21	1
158	11	7	27	10
157	12	14	-23	5
157	12	29	-77	10
157	3	29	-27	8
157	-12	27	15	2
157	-12	35	-3	9
159	-20	36	16	3
158	-54	32	-4	7
158	-103	25	-1	4
158	-79	16	18	5
157	18	8	29	4
158	43	14	43	8
157	61	17	19	9
157	115	17	10	6
157	113	22	10	6
157	69	18	26	-2
158	19	13	35	3
157	-6	13	31	-6
158	-8	20	32	-11
157	-16	17	31	-2
159	-28	11	1	-6
157	-16	15	-40	-2
158	-7	18	-44	2
158	-12	17	-18	-4
157	-5	15	-10	-2
158	-14	13	1	7
157	-16	10	17	5
157	-12	15	49	6
157	-20	18	58	5
157	-17	22	26	-3
157	-4	24	13	5
158	3	23	6	3
158	8	21	11	-3
158	13	19	7	-2
158	27	21	4	0
157	24	17	6	6
158	19	17	15	3
158	16	15	24	4
157	7	16	-2	4
157	5	17	-24	0
157	1	17	-3	4
157	-4	21	11	4
158	3	21	10	-1
157	5	17	13	3
157	4	10	0	4
158	0	-2	-10	0
157	1	3	-11	-7
158	0	10	2	-5
158	-5	9	3	8
158	-6	19	-2	4
158	-6	25	1	-4
157	1	28	-1	-1
158	8	33	18	4
157	37	41	49	7
157	84	45	57	14
158	57	36	23	14
157	11	26	-16	2
158	2	24	-20	-8
158	-26	19	-1	-9
157	-35	12	-6	-3
158	-37	13	5	-1
157	-25	12	38	2
157	-1	9	28	0
157	-13	13	-48	5
158	-26	17	-78	2
158	-75	11	21	-5
157	-78	11	50	-6
158	10	15	45	0
158	40	11	19	6
157	61	14	-19	-3
157	89	11	14	-3
158	100	14	-25	1
158	93	18	-32	-3
158	37	13	16	3
157	25	15	56	2
157	1	17	57	11
158	-31	17	-26	21
158	-46	19	-36	16
157	-26	16	44	2
157	17	19	-10	-8
158	17	24	-37	-8
158	26	22	18	-14
157	35	21	22	-15
157	37	21	43	-14
158	33	20	13	-6
158	32	25	-4	2
158	12	26	6	6
158	-12	19	6	8
157	-35	17	13	4
157	-57	16	13	3
157	-35	15	16	-4
158	-17	17	-1	2
157	-15	17	-14	10
157	-11	20	2	7
157	-8	21	23	7
158	-5	18	9	8
157	1	16	8	7
158	4	19	-12	9
158	-3	18	-11	3
158	-5	17	15	1
158	-1	18	-3	-4
157	-3	19	-15	-9
157	-1	17	3	1
158	2	18	26	2
157	2	18	23	1
157	12	17	19	1
157	14	21	15	-8
157	15	18	1	-5
157	7	13	-7	-2
158	0	11	-5	0
158	5	17	4	4
158	11	15	14	1
158	15	17	7	0
158	17	17	-6	3
158	5	15	16	-1
157	-6	17	52	6
158	5	21	60	13
158	8	23	46	14
157	3	32	48	16
157	-6	25	32	11
158	-1	15	-23	-2
158	19	19	-48	-7
158	31	18	-4	-9
158	29	15	12	-8
158	19	19	-19	-2
157	3	24	-22	0
157	-9	16	0	-5
158	-11	11	4	-1
157	-1	9	0	5
157	22	14	0	3
157	33	17	-3	5
158	26	15	9	7
158	27	19	16	4
158	12	19	3	3
158	-15	21	-5	7
157	-79	24	-3	4
158	-84	22	1	4
157	-11	20	5	4
158	-1	14	28	3
158	30	11	55	10
158	73	15	66	3
157	82	25	74	3
157	88	25	67	1
157	72	18	-65	0
158	53	29	-150	-4
157	7	19	-17	-7
158	-7	17	-17	-11
158	-1	23	-19	-11
157	1	15	31	-5
157	-25	18	9	-4
157	-56	15	32	-5
157	-17	22	-9	-6
157	-15	24	-7	-2
158	-24	21	22	-2
158	-15	23	28	-2
158	-17	22	18	-1
157	-9	19	-11	7
158	-13	11	-15	16
157	-15	4	13	14
157	-14	3	34	4
157	-11	9	10	-7
157	-2	13	-1	2
157	0	17	6	3
157	8	20	6	7
158	23	26	-13	4
158	30	25	4	2
158	22	23	18	4
158	19	19	27	0
158	8	17	57	-1
158	-5	15	37	1
157	-5	14	21	-2
158	-6	18	14	1
158	5	21	5	1
157	11	18	1	2
157	13	21	2	0
157	18	19	15	2
158	26	19	32	10
158	28	18	21	10
157	11	12	-19	5
158	-15	18	-43	-1
157	-24	18	-37	-4
158	-8	10	-14	-8
158	13	12	-18	-12
157	17	14	-3	-2
158	18	16	21	7
158	20	16	49	3
158	29	26	64	3
158	20	31	33	5
157	-5	29	31	0
157	-12	27	28	0
157	-2	24	-8	-3
157	-2	22	-28	-3
158	0	18	-20	0
157	0	19	-18	-1
158	-9	17	-3	2
158	-8	19	10	3
157	5	18	-2	6
158	8	16	6	8
157	0	15	8	4
157	-3	17	17	-4
158	-1	18	36	-2
157	-8	16	39	4
158	-12	16	22	6
157	-14	13	-12	13
157	-9	15	-3	11
157	8	17	49	9
158	23	17	57	3
158	26	13	8	-7
158	38	13	-82	-4
158	48	22	-118	-3
158	38	28	-30	-8
157	17	24	-6	-4
157	2	22	-11	-2
158	-3	21	19	-2
157	-14	16	27	4
158	-58	13	45	4
157	-92	14	22	7
157	-31	11	22	7
158	16	9	22	7
157	37	11	17	8
158	78	10	27	3
158	50	13	28	2
157	25	21	30	-9
159	40	27	-7	-8
157	38	32	-12	7
158	16	34	10	7
158	15	33	38	-3
158	20	24	79	-5
157	11	17	16	-4
157	1	23	-81	-6
158	20	23	-30	-3
157	40	12	26	4
158	27	21	-11	7
157	-4	26	-13	4
158	-14	23	9	1
157	-19	20	13	2
158	-33	13	0	-1
157	-23	12	4	2
158	-24	9	29	9
158	-10	11	29	9
157	5	18	0	9
157	-1	17	-1	4
158	5	15	1	0
158	1	20	3	-1
158	0	19	18	0
157	-4	15	-11	3
157	9	16	-30	6
158	23	15	-5	2
158	10	17	4	1
158	-2	17	20	-1
157	-1	15	54	-4
158	-16	17	62	0
157	-16	15	27	-3
158	-9	14	-19	-2
158	1	19	-10	-5
157	11	23	24	-7
157	3	23	-6	-1
158	5	25	-18	7
157	1	19	7	2
158	-4	14	13	-1
158	0	11	15	-1
157	1	17	16	0
158	6	18	20	8
157	3	17	-3	0
158	0	16	-20	7
158	-16	14	-8	7
159	-29	17	-12	3
158	-27	17	-12	0
157	-9	22	-9	-3
158	2	22	-7	2
157	18	20	16	-3
157	42	27	41	0
157	55	24	45	4
158	55	25	36	-1
158	42	23	24	3
158	31	22	27	2
157	19	21	29	2
158	10	18	19	3
157	-4	11	25	2
158	-52	15	22	6
157	-86	19	20	-1
158	-24	15	3	7
157	34	19	-67	5
157	34	17	-65	-2
158	57	17	-3	-4
157	67	17	6	-1
158	67	17	38	-3
158	44	16	5	-6
157	21	15	-41	-5
157	8	15	-9	-6
158	-22	11	8	1
157	-20	13	1	6
158	-8	22	-15	2
158	-13	23	8	3
158	-13	25	23	7
157	-11	21	30	11
158	-3	15	31	1
157	-7	14	10	-3
158	-5	16	6	-4
158	4	20	7	-5
158	4	19	-12	7
157	0	23	2	8
157	-3	21	-5	4
158	-1	21	-17	0
158	0	22	10	1
158	-4	17	19	6
158	1	17	51	3
157	1	17	51	3
157	0	17	22	3
158	3	15	-16	2
158	1	16	-20	1
158	1	14	12	-4
158	-1	14	13	-6
157	1	16	15	2
157	1	14	39	10
157	0	14	66	6
157	-4	16	15	7
158	-9	21	-52	13
158	-10	19	10	4
157	-5	17	39	-5
157	1	10	-31	-5
158	14	15	-42	-4
157	33	19	-12	4
158	38	18	0	0
158	29	18	-13	-6
158	19	14	-25	3
157	10	16	-26	7
157	15	22	-5	-11
157	14	20	40	-9
157	9	21	52	2
158	5	19	37	-2
158	3	19	8	0
157	1	20	4	1
157	-3	19	11	4
158	-5	17	3	4
157	3	18	4	5
157	17	19	7	-1
157	14	21	7	2
158	8	20	3	5
157	-5	18	11	0
158	-16	18	19	4
157	-11	18	17	4
157	-24	13	9	6
157	-11	13	5	0
158	23	17	15	-2
157	14	18	10	-3
157	8	24	9	-4
157	21	28	15	3
158	16	26	22	7
158	23	25	14	4
158	12	25	-1	2
157	1	18	16	3
158	27	15	23	-7
158	44	16	0	-6
158	31	17	-28	0
158	-3	17	-2	2
158	-67	17	45	0
158	-94	18	46	4
158	-41	18	64	10
157	-5	19	58	9
157	38	14	-22	13
158	63	14	-118	8
158	58	17	-58	2
158	72	14	4	1
157	61	18	-16	-10
158	33	20	19	-4
158	-9	21	-3	-1
157	-8	19	-3	0
158	-3	21	-10	6
158	-27	16	0	7
158	-17	14	3	2
157	-5	22	-16	-3
158	-2	19	7	-7
158	-1	22	1	-10
158	1	17	31	-1
157	8	15	29	1
158	2	22	15	2
158	-13	18	18	3
157	-11	17	18	4
157	-7	16	33	6
158	-2	19	23	2
157	9	18	24	2
157	12	17	22	0
158	19	19	27	-1
158	17	18	39	0
157	8	21	33	-1
157	1	18	26	0
158	-7	18	4	2
158	-8	17	-48	7
157	-8	18	-16	13
158	-16	18	72	7
158	-13	14	71	-1
157	-1	17	-23	-2
157	8	23	-110	-1
158	5	16	-51	-6
157	3	15	-26	4
158	10	17	-47	6
158	18	14	-37	-5
158	12	19	-33	-1
157	10	13	44	-9
157	12	12	94	-8
158	5	15	106	-5
158	1	13	52	0
157	0	15	3	-2
158	1	19	3	-2
157	2	19	-12	3
157	3	23	7	2
158	6	21	3	7
157	15	23	2	0
157	18	23	19	-3
158	8	18	35	0
158	5	17	32	0
157	10	21	8	7
157	7	24	14	7
158	5	20	15	4
157	3	21	8	4
158	3	21	22	4
157	1	17	14	-3
157	-10	14	-32	-1
157	-17	16	-45	9
157	-14	17	-9	3
158	-13	23	0	4
158	-6	20	16	7
158	9	17	-12	7
158	18	18	-58	0
157	31	12	-4	-2
158	44	17	12	-4
158	44	19	-20	0
158	34	22	-19	2
158	23	24	15	1
157	14	17	36	2
157	5	17	22	0
158	-3	17	20	8
158	-2	15	9	9
157	-2	14	25	11
158	1	16	65	14
157	1	13	88	6
157	-3	14	43	-2
157	4	19	-55	-1
157	12	22	-42	-3
158	21	21	-8	-8
158	25	19	-21	-9
157	9	17	-9	-6
158	-3	21	-33	1
157	-1	21	0	-6
158	-21	17	24	-1
157	-77	21	6	2
157	-101	19	28	0
157	-44	20	17	5
157	0	23	8	4
157	28	21	-4	6
158	52	21	2	9
157	41	19	27	3
158	22	19	47	-4
157	5	17	61	0
158	-1	12	-1	5
157	-14	8	-42	2
158	-10	14	-25	-2
158	22	13	-1	2
157	53	17	-6	-1
158	57	25	-17	-4
157	69	26	-7	4
158	89	28	13	-1
158	51	22	2	0
157	14	16	-18	-1
158	9	17	29	0
157	0	15	74	3
158	-7	16	71	0
157	-5	19	32	3
158	-10	17	15	0
158	-14	15	3	-2
158	-17	15	11	-1
158	-19	15	17	1
157	-19	17	-15	2
158	-21	14	-14	0
158	-17	17	-10	2
158	-13	17	3	0
158	-6	14	-3	-1
157	-2	19	-6	-5
157	3	23	-13	-4
158	2	24	-12	4
158	1	20	21	7
158	0	20	33	7
158	-3	21	55	6
157	5	17	50	7
158	3	17	42	4
157	1	14	53	12
158	1	13	34	4
157	1	12	43	3
158	0	13	35	-11
158	-6	20	-11	-17
158	-7	20	-12	-1
158	-1	22	-53	-1
158	8	24	-113	19
158	14	19	-27	17
158	17	18	18	-1
157	10	21	-15	3
158	8	17	-31	6
157	8	23	-62	6
158	7	20	-46	-3
158	10	19	-54	-4
157	12	19	-39	-1
157	12	15	-4	-2
157	11	19	47	-3
158	8	19	82	-5
158	7	17	33	-4
158	7	17	26	2
158	-4	16	24	3
157	-5	17	13	6
157	-2	18	22	7
157	5	17	60	3
157	12	17	90	4
158	10	20	53	3
158	13	22	17	4
158	15	24	-4	4
157	17	17	0	8
158	15	15	28	6
158	5	14	8	-4
158	-6	18	-31	1
157	-12	20	-42	9
158	-16	12	55	4
157	-17	5	89	8
157	0	11	-38	2
158	8	18	-24	-2
159	15	17	23	9
157	25	19	-21	10
158	34	23	-16	9
158	44	23	-6	-1
158	33	22	5	-12
158	16	24	10	-11
158	11	19	-3	-12
157	5	15	-17	-18
157	5	15	-18	-14
157	3	15	-2	-9
158	-3	20	38	-8
157	-4	19	80	-2
158	-6	24	46	3
157	-7	25	17	12
158	-7	18	30	15
157	-2	14	-1	15
158	0	21	-19	18
157	-2	23	-3	14
158	3	20	-36	13
157	1	19	-28	7
157	-2	15	16	2
158	-14	17	-17	-3
157	-18	15	-13	-15
159	-14	10	28	-12
158	-6	14	22	-21
158	3	15	9	-22
157	10	16	-16	-14
158	22	27	-28	-9
158	28	29	-8	-5
158	17	30	-20	-4
158	-11	23	-4	2
157	-56	16	40	-9
157	-42	17	78	-14
157	3	11	74	-12
157	14	20	-52	-4
157	48	30	-96	4
157	67	18	28	9
158	69	12	31	25
158	69	8	12	29
158	42	4	30	25
158	27	19	9	21
158	-3	22	11	21
157	-17	17	8	22
158	-10	17	10	21
157	-17	23	2	22
158	-17	21	26	19
157	-12	18	29	11
158	-11	16	12	10
157	-8	15	-10	10
157	-5	21	-13	6
158	-4	17	1	0
157	1	19	-19	-2
157	5	17	-15	-10
157	6	17	-43	-25
157	3	21	-25	-31
158	3	18	44	-31
158	6	22	84	-35
158	10	24	93	-33
157	9	21	29	-21
158	8	19	8	-12
158	9	20	27	3
157	5	19	7	17
157	3	19	-55	18
157	-1	21	-80	26
158	0	16	-3	37
158	4	21	48	44
157	1	19	60	46
157	2	12	69	35
157	3	12	35	21
158	3	11	-28	21
157	4	17	-40	11
157	1	22	10	-6
158	1	11	87	-18
157	0	14	37	-29
158	8	25	-35	-56
157	8	19	-3	-65
157	5	16	-3	-51
157	5	15	11	-53
157	5	18	-37	-32
157	7	17	-56	-20
157	-1	17	-20	-2
158	-6	17	16	13
158	-8	14	60	10
157	4	17	47	16
157	12	13	22	20
158	12	19	1	19
158	10	23	-9	18
158	9	22	-39	27
157	-1	23	-3	21
157	-3	17	-23	16
158	8	22	-62	27
157	15	19	7	25
157	17	17	13	19
157	22	21	2	15
158	28	19	29	22
158	18	18	48	24
158	10	16	112	21
157	8	15	172	18
157	6	19	59	9
158	1	20	-26	-12
157	-1	19	-9	-32
157	0	15	-41	-33
157	-1	19	-49	-40
158	0	21	-64	-42
158	-2	19	-29	-32
158	-3	13	9	-26
157	-4	19	-13	-10
158	0	19	-36	-3
157	7	14	-83	-4
158	8	24	-58	14
157	-6	21	-24	26
158	-7	18	30	18
157	1	19	96	23
157	5	17	101	15
158	10	14	60	6
157	7	20	-12	6
157	11	23	4	0
158	15	18	12	1
158	8	13	-7	6
158	3	13	-73	5
157	3	21	-115	-3
158	2	17	2	-10
158	1	17	6	-10
157	3	22	-82	4
157	-1	24	-55	7
157	-9	21	-30	9
157	-10	17	19	12
158	-9	17	71	9
158	-2	21	68	-1
158	5	22	142	5
157	13	16	167	19
157	31	22	122	17
158	37	25	49	11
157	28	22	0	-3
158	25	24	-1	-4
157	14	19	-7	-2
157	5	15	40	2
158	3	14	48	3
157	-2	11	55	1
157	0	10	14	0
158	3	14	-84	7
158	2	20	-36	9
157	-3	17	-15	11
158	-12	13	-37	20
157	-9	10	-9	6
158	5	14	46	-11
158	14	15	77	-13
157	7	10	4	-13
158	3	11	47	-20
157	8	9	126	-16
158	10	18	-61	-12
157	4	26	-196	-14
158	-13	29	-58	-5
158	-48	31	-45	-3
157	-91	20	-35	4
158	-58	17	19	11
158	7	17	17	16
157	22	15	53	24
157	64	16	-29	23
158	98	18	-8	23
157	97	17	16	21
158	87	15	-36	13
158	53	23	-16	3
158	32	29	21	-4
158	-6	27	87	-4
158	-24	18	55	-10
159	-12	12	26	-22
157	-2	15	35	-35
157	-11	19	40	-31
157	-15	14	21	-18
158	-11	15	-25	-14
157	-9	17	-17	-15
157	-8	19	33	-12
158	-11	17	-5	-16
158	-11	22	-68	-16
158	-8	23	-27	-13
158	-4	21	26	-2
158	-4	17	116	7
158	-5	15	47	7
158	-2	20	-77	26
158	-3	16	-64	23
158	-7	12	-30	22
157	-6	10	60	22
158	1	19	-6	23
157	5	26	16	21
157	9	18	61	19
157	17	21	-33	19
158	10	18	52	7
158	6	17	21	4
157	5	18	-67	-2
157	3	17	-127	-4
157	8	22	-91	-6
158	9	25	59	-16
159	5	22	21	-8
158	4	16	-59	-5
158	4	16	65	-7
158	5	15	220	-2
157	7	17	106	4
158	8	19	10	8
158	4	9	9	12
158	5	13	-79	16
157	8	22	-46	19
157	8	18	11	14
158	11	19	-17	9
157	10	23	-26	6
157	7	17	52	-3
158	3	16	90	-6
157	5	18	35	-21
158	5	20	9	-28
158	0	19	-23	-19
157	1	20	-29	-4
157	3	19	-33	2
158	-4	19	-15	2
157	-6	19	-3	8
158	1	18	27	15
157	5	15	54	29
157	13	14	68	26
158	12	17	85	22
157	13	17	-11	16
158	17	19	-34	7
158	5	14	8	-7
158	2	11	-11	-8
157	-1	18	-49	10
159	-2	18	-120	13
157	3	17	-24	4
157	10	22	93	3
157	22	19	131	2
158	25	22	110	-4
157	24	23	-23	-13
157	27	18	-34	-28
157	27	19	-66	-36
158	13	24	-74	-26
157	4	19	5	-15
158	-2	22	-18	-1
157	0	20	4	6
158	-1	16	92	10
158	0	24	44	13
157	0	20	-39	13
158	-5	13	37	6
157	-6	10	44	1
158	0	9	-21	12
157	1	16	-33	15
157	-3	24	-15	8
158	-5	22	31	-1
157	-5	17	18	-17
157	-12	15	45	-34
158	-20	13	98	-34
158	-18	19	86	-16
158	-6	17	34	-8
158	5	16	-84	6
157	7	23	-101	7
158	8	22	-47	15
158	23	22	-33	22
158	38	27	33	23
157	32	25	53	35
158	20	13	46	19
157	17	9	0	3
158	12	10	-100	-9
158	8	13	-54	-18
158	1	13	47	-11
157	1	14	28	-8
157	1	15	-17	-11
157	-3	11	-13	-19
157	1	19	68	-18
157	3	22	152	-8
158	-1	20	108	-1
157	-4	23	-78	15
157	-16	21	-125	18
157	-64	10	4	16
158	-60	14	-39	17
158	15	15	-10	12
157	20	10	20	15
158	15	14	8	10
157	31	13	55	11
157	33	9	21	6
158	40	19	-27	2
157	19	27	-20	3
157	0	22	58	-4
157	19	24	57	0
158	36	25	46	3
157	25	30	-3	4
158	25	24	-34	6
158	19	21	-54	2
158	10	24	-63	0
158	4	18	12	8
157	2	22	49	10
158	10	22	109	8
157	1	18	88	2
158	-3	18	42	-1
157	-12	13	6	-5
159	-14	15	-39	0
158	-5	19	-49	4
158	-7	15	-43	1
158	-3	14	-19	0
157	0	21	-19	-9
158	1	22	8	-6
158	12	23	26	0
158	12	29	-11	2
158	3	26	-54	-5
158	-3	21	-3	2
158	-4	19	29	8
158	4	17	-41	5
158	8	18	41	9
157	6	15	195	3
158	-5	16	135	-5
157	-5	17	38	-4
157	-3	13	29	0
158	-7	9	-32	9
158	-4	8	-30	12
157	-4	8	-12	3
157	-1	13	-38	2
158	0	19	-50	0
157	5	21	-46	-1
158	9	19	-53	-3
157	16	24	-120	-3
158	14	23	-58	3
157	4	16	27	7
158	7	19	50	13
157	7	17	111	15
158	7	17	105	13
157	7	10	99	10
158	16	16	79	9
158	28	25	-8	-7
158	26	19	1	-29
157	24	22	32	-36
157	18	19	-5	-33
157	13	23	-22	-33
157	7	24	-47	-38
158	1	19	-43	-31
157	-2	19	19	-14
158	-2	22	30	3
158	-2	16	24	6
158	-9	14	38	0
157	-13	10	-14	4
158	-12	8	28	13
158	-8	14	120	11
158	-5	16	74	9
157	2	25	-33	18
157	7	22	-1	25
157	18	15	33	18
157	19	18	-89	14
158	10	19	-130	3
158	8	22	-146	-18
157	8	17	-80	-20
157	2	17	-28	-8
157	-18	16	-8	0
158	-25	17	107	11
157	-14	23	22	18
158	2	20	-15	22
158	10	17	10	12
157	8	12	-11	3
157	14	16	26	10
158	29	28	-42	13
158	28	29	8	7
158	15	18	49	-3
157	20	21	102	2
157	13	14	168	2
158	9	17	68	0
157	4	18	25	0
157	4	19	-48	8
157	9	23	-71	18
157	7	21	-50	23
157	9	24	-28	27
158	7	16	24	14
157	4	14	58	4
158	0	17	74	-9
158	-1	22	4	-11
157	-3	17	-55	-7
158	-7	18	-58	0
157	1	22	-9	8
158	5	19	33	7
158	6	18	71	0
157	8	11	87	-6
157	3	9	49	-2
157	-1	15	-7	-10
158	0	15	-34	-4
157	-3	12	-50	-6
158	-3	18	-64	-1
157	-1	19	-42	6
158	0	17	-54	-7
158	2	17	-55	3
157	3	19	-5	0
157	6	17	79	-6
158	10	16	99	-9
157	22	21	46	-6
158	19	22	4	3
157	6	21	6	7
158	1	16	34	11
158	-9	20	87	10
158	-51	20	199	9
158	-71	17	100	5
158	-16	20	-12	6
158	5	19	40	6
158	23	20	10	-2
158	54	18	3	-7
157	62	16	-35	-15
157	65	18	-68	-14
157	53	24	-71	-4
159	35	24	-33	-3
158	13	23	8	9
158	9	17	-35	11
158	10	14	-71	3
157	14	19	-62	1
158	14	16	-1	4
157	11	12	-15	14
158	-2	18	-47	13
157	-22	20	6	9
158	-34	17	63	-7
157	-29	18	15	-20
157	-10	15	3	-26
158	-7	6	27	-30
158	-5	2	-62	-23
158	8	18	6	-11
157	22	20	87	-8
158	15	23	-14	4
157	8	32	-36	4
157	15	23	61	-2
157	8	19	16	4
158	1	20	-16	13
158	-9	17	99	22
158	-15	17	68	18
157	-8	23	-57	26
158	-1	22	-34	24
157	-4	17	-65	19
157	3	18	-66	21
158	1	11	15	8
157	6	12	12	-1
158	7	14	66	-12
157	9	15	72	-25
158	12	16	13	-29
157	15	14	-52	-33
158	13	18	-27	-32
157	6	22	43	-7
157	9	21	64	4
158	14	21	101	-1
157	11	23	61	4
158	0	21	40	0
158	-14	17	-20	-10
158	-19	20	-66	-4
157	-8	22	-38	9
158	-1	21	-40	14
158	5	18	5	11
157	4	17	27	15
158	8	17	-1	28
158	20	17	-13	30
157	21	13	56	24
158	20	17	24	29
158	18	14	-2	20
158	15	4	114	-9
158	11	12	133	-24
158	6	19	80	-18
157	11	25	-9	-10
158	9	24	-119	-7
158	3	25	-73	1
157	1	19	-44	3
157	-4	14	-52	-2
157	-5	17	71	2
158	-2	17	151	11
157	-3	10	95	13
157	4	13	-49	6
157	11	23	-31	4
157	0	24	-38	-1
157	-7	20	-53	-5
157	3	17	-12	-6
158	1	25	-51	0
158	-2	23	-37	0
158	0	13	-29	-5
158	11	18	17	6
157	24	22	3	9
157	26	19	-22	7
157	16	17	36	7
157	1	18	83	12
157	-4	21	60	15
157	-8	23	32	12
158	-12	18	-58	-2
158	-20	8	-117	-18
157	-4	15	56	-7
158	10	13	91	-7
157	8	10	63	-19
158	20	22	-18	-6
158	28	25	-50	-3
158	33	19	43	1
158	30	21	-4	10
158	15	17	8	9
157	14	21	-23	10
157	9	27	-13	9
158	1	21	22	7
157	0	21	-5	4
158	-3	19	32	-1
158	3	19	60	7
158	3	19	102	9
157	1	13	72	9
157	1	13	15	-3
158	1	13	-43	-29
157	-1	12	-44	-30
157	1	21	-72	-12
158	-1	24	-120	7
158	-4	24	-18	14
157	-7	26	-20	10
157	-8	23	-46	3
157	-1	22	29	1
157	4	16	128	-1
157	2	18	40	9
158	1	25	-165	16
158	-2	18	-3	9
157	-4	13	96	11
157	-2	14	25	5
158	-3	17	98	-4
157	-1	15	105	0
158	5	17	43	10
157	8	19	-21	6
159	20	15	51	0
157	25	12	113	8
158	13	9	47	0
158	0	15	-125	-10
158	-1	19	-205	-29
157	0	17	-118	-23
158	3	23	-119	-14
158	7	18	18	-22
158	17	16	214	-18
157	25	19	137	-10
157	21	21	-41	-14
158	18	22	64	-10
158	16	21	152	25
158	10	16	127	24
157	1	14	24	17
158	-1	16	-167	11
158	0	18	-49	-8
158	1	11	37	-12
158	0	11	-90	0
158	0	23	-148	15
158	-6	24	41	11
157	-21	9	48	2
157	-15	19	2	-15
157	-1	19	89	-17
157	1	13	46	9
158	8	18	107	20
158	8	14	47	10
158	10	16	-13	8
157	21	21	-74	19
157	30	30	-54	13
157	27	30	141	9
157	18	23	23	4
158	13	15	-32	15
158	8	15	13	24
158	0	16	-5	27
157	-2	14	21	26
158	3	17	-60	24
158	4	26	-119	24
157	5	28	-95	-3
158	0	22	-88	-21
157	2	25	-78	-42
158	3	21	21	-40
158	1	17	75	-17
158	-3	14	120	-12
158	-4	13	144	5
158	-7	17	85	12
158	-8	16	-14	10
158	-10	17	-79	10
158	-10	17	-30	15
158	-3	23	-36	7
158	13	17	-24	0
158	13	14	4	-5
157	3	17	32	-17
157	10	21	53	-17
158	20	21	8	-21
157	33	19	35	-9
158	26	24	48	7
157	10	17	-22	9
158	7	22	8	9
158	8	23	108	16
157	3	15	151	19
158	-1	19	63	8
157	-2	21	-60	8
158	-9	17	-47	1
157	-14	14	-7	-1
158	-11	17	33	-1
158	-7	17	42	-8
157	4	22	28	-10
158	10	14	12	-9
158	16	9	-38	-9
158	16	11	-85	-1
157	2	17	-180	12
157	3	26	-125	11
158	8	17	20	9
157	11	16	24	13
157	3	25	64	14
158	-1	14	49	0
157	21	16	5	-2
158	14	19	30	6
158	-29	13	32	3
158	-43	17	26	-18
157	-5	21	6	-26
158	23	24	-11	-4
158	28	26	-19	-2
157	21	25	40	-1
157	25	18	77	8
158	42	17	86	14
158	36	23	80	13
157	31	22	-3	8
157	27	16	13	5
157	13	16	18	-2
158	1	12	-78	-12
157	-6	10	-106	-23
157	-7	10	-64	-18
158	-6	14	2	-21
158	-7	15	-47	-10
158	-5	18	-91	11
158	-3	19	30	18
158	-4	17	6	24
157	-7	23	-92	27
157	-7	11	68	22
157	-10	12	250	19
157	-17	12	194	25
157	-21	1	80	14
157	-23	7	9	9
157	-24	11	-85	-4
158	-25	15	-82	-24
157	-9	18	29	-32
158	12	19	108	-44
158	1	21	71	-46
158	-4	28	-29	-21
158	30	32	-16	23
158	67	25	-8	40
157	83	31	-50	56
158	63	29	-78	82
158	25	25	-84	82
158	15	25	-96	78
157	-2	21	-84	80
157	-35	17	55	51
158	-23	17	-2	0
158	-6	19	-47	-60
158	7	21	107	-135
157	14	11	149	-197
157	10	11	197	-186
157	14	14	94	-115
158	17	16	8	-58
158	19	23	90	-20
158	-1	15	54	8
158	-35	8	-33	17
158	-32	3	-86	29
157	-9	1	-106	23
158	-4	4	-97	16
158	3	19	-88	36
158	14	26	-111	39
157	54	35	-166	40
158	96	48	-99	37
157	58	41	-20	28
158	-5	27	2	32
158	-27	22	174	34
158	-22	18	191	24
158	-24	10	117	13
157	-16	17	45	20
158	-1	16	3	22
158	5	14	36	17
158	3	13	-17	24
158	-1	9	12	29
157	11	22	27	35
158	16	21	37	32
158	-6	6	52	14
157	-25	5	37	-6
158	-31	21	86	-28
158	-31	19	31	-24
157	-3	21	-82	-14
158	18	22	-89	-15
158	11	22	-62	-1
157	8	16	-28	10
158	23	19	-20	13
158	27	20	1	20
158	22	14	46	33
158	39	22	16	25
158	33	28	27	12
157	15	28	60	16
158	7	19	15	17
158	5	23	-57	4
157	1	16	22	-35
158	-5	12	157	-73
157	-3	25	52	-59
158	1	26	-38	-49
157	-1	16	15	-55
157	-5	12	-63	-27
158	-5	12	-147	-21
157	-6	7	-34	-15
158	-4	6	104	12
157	-2	12	30	28
158	-3	10	-95	37
157	-2	11	-59	32
158	1	15	50	27
158	2	20	5	9
158	-6	14	-167	-3
157	-6	18	-12	-15
159	0	25	305	-24
158	1	14	107	-2
157	4	14	-67	25
157	4	10	-5	29
157	9	15	-19	34
158	2	19	140	19
157	1	21	130	19
158	13	29	56	33
158	17	28	49	18
158	15	20	13	-4
157	16	12	-66	-19
158	25	23	-124	-27
158	25	31	-1	-29
157	22	26	-26	-19
158	15	15	12	-12
157	11	13	43	-9
157	10	17	-14	-6
158	3	14	15	-6
157	-3	13	-53	7
158	-7	16	-18	10
158	-4	16	37	12
158	4	13	-14	13
157	-1	15	-38	9
157	-4	18	30	11
157	6	21	43	9
158	16	29	10	8
157	18	28	38	11
157	7	31	13	15
157	2	27	5	13
157	-3	13	-73	6
158	-3	14	-224	-6
157	0	22	-141	-17
158	-4	18	73	-17
157	3	14	111	-12
159	7	21	67	-12
157	7	25	32	6
158	7	19	4	7
158	1	7	-109	2
157	1	14	-41	19
158	7	21	35	12
158	1	17	135	5
157	1	14	378	10
157	2	18	91	15
158	2	31	-71	30
158	-8	26	-14	14
158	-18	18	-120	-2
157	-5	16	-28	4
158	2	17	-51	7
157	12	20	-48	6
157	17	22	-18	-3
157	29	28	-15	-18
158	31	24	45	-33
158	19	25	-67	-45
157	17	19	41	-64
158	17	9	182	-61
157	3	5	155	-38
158	-6	14	31	-27
157	-5	11	-137	-34
158	-6	8	-33	-19
158	0	18	-55	10
158	10	21	-22	25
158	15	13	232	36
157	25	15	179	31
157	20	19	-101	24
158	12	23	-140	31
157	8	28	-72	37
157	2	24	-91	34
157	-4	19	-12	31
157	-3	22	-2	30
157	-5	15	65	25
158	-10	10	174	20
157	-9	22	142	22
157	-17	22	-22	14
157	-15	14	-36	-17
158	-8	15	-16	-27
158	3	21	-102	-40
157	15	25	-12	-38
158	19	22	47	-3
158	24	18	79	4
157	23	16	-50	0
158	29	18	-248	-8
157	23	14	-132	-21
158	6	12	8	-10
158	1	15	204	12
158	4	12	315	32
158	4	23	84	28
157	1	23	30	-1
157	-15	14	-14	-28
158	-31	15	-209	-25
158	-28	15	-165	15
158	-13	13	-15	20
157	-4	10	43	6
157	2	9	61	1
157	12	9	10	-5
157	34	17	21	3
158	46	25	85	12
157	37	29	14	16
157	26	22	8	13
158	20	24	-9	2
158	17	27	-52	-6
157	5	23	-82	10
158	1	19	-54	36
158	-3	15	64	43
157	-6	19	208	33
157	-3	15	163	26
158	-6	13	-47	17
158	-12	6	-3	-4
157	-7	18	6	-14
158	3	24	-110	-8
157	-1	21	-86	-16
158	-2	24	-57	-17
157	14	19	1	-9
158	15	28	87	-13
158	5	28	48	-25
158	4	23	-16	-23
158	0	13	-86	-14
158	-14	12	-20	-17
157	-10	13	162	-20
158	-3	16	74	-8
158	-1	22	-49	0
158	14	19	-13	4
158	34	21	-50	5
158	34	20	10	4
158	7	17	95	4
157	-2	19	54	16
158	-11	15	42	8
158	-12	18	-13	-15
158	6	26	-114	-9
157	18	33	-204	-8
157	26	23	-125	-24
158	17	4	40	0
158	12	4	97	22
157	13	10	148	16
157	12	15	120	12
157	2	15	108	0
158	0	27	44	-1
158	3	27	-132	-14
158	0	17	-85	-6
158	-1	19	96	-4
158	-4	12	170	-12
157	-3	17	159	-8
158	-2	15	68	-22
158	-2	9	-14	-18
158	-1	17	-88	-1
157	1	26	-119	24
158	3	22	-58	26
157	8	19	-50	18
158	9	17	-31	18
158	10	16	-5	20
158	0	7	-42	18
158	-17	9	-63	30
157	-21	24	-102	36
157	-19	13	-115	22
158	-1	16	-48	13
157	11	25	36	-25
158	15	20	180	-41
157	22	26	314	-29
157	36	29	131	-24
157	43	26	-46	-8
158	26	18	82	0
158	18	23	2	9
157	16	22	-51	10
157	6	17	-17	7
158	3	23	-125	11
158	5	24	-91	16
158	5	18	-131	18
157	-2	13	-132	3
157	-5	7	-4	17
157	0	4	210	27
157	-8	8	371	16
157	-17	8	185	23
157	-17	16	-27	17
158	-9	24	-68	7
158	-14	17	-124	-8
157	-12	20	-41	-38
158	4	24	87	-49
157	11	19	18	-33
158	16	15	-36	-24
158	21	22	13	-15
157	13	21	40	-1
158	19	19	-25	7
158	32	24	-44	-2
157	27	21	14	-23
157	20	19	1	-17
158	16	23	-70	-23
157	13	22	25	-26
158	4	17	115	-5
157	-4	26	-5	16
157	1	21	-58	27
158	-6	2	-66	32
157	-7	9	24	36
158	-4	17	125	36
158	-5	15	97	36
157	-7	17	94	37
157	-3	19	22	37
157	4	17	-8	35
158	7	19	-11	25
158	8	15	-80	7
157	10	17	-99	6
158	8	26	-97	1
158	3	22	-25	-13
159	3	18	-7	-28
157	0	16	-35	-54
157	-5	14	-40	-58
158	-4	18	-35	-25
157	-1	18	45	-17
157	-1	21	91	-11
158	3	18	178	15
157	11	11	179	23
158	16	17	-3	22
157	16	18	-73	11
157	9	10	-17	16
158	5	18	-100	4
157	4	17	-127	-21
157	-1	18	-60	-9
157	-3	23	-77	13
157	0	23	-9	20
158	4	26	43	26
158	3	12	80	19
157	10	9	32	8
157	12	19	-17	-5
158	10	28	-10	-10
158	8	28	-59	-9
157	8	22	-63	-19
158	10	19	-17	-39
158	3	17	-4	-41
158	5	25	-9	-27
157	3	17	94	-7
157	3	15	154	14
158	7	18	113	21
158	-3	16	-20	22
157	-14	19	-43	28
158	-9	23	-39	30
157	-10	18	-89	22
157	-33	9	119	-2
157	-42	8	222	0
158	-15	7	101	7
157	10	4	60	-15
157	24	13	119	-22
157	44	31	88	-33
157	59	31	12	-14
158	55	28	-37	2
158	51	39	-98	2
158	50	34	-64	5
158	35	21	23	-6
158	10	17	85	4
158	5	14	35	28
158	1	12	5	42
158	-8	17	21	40
157	-8	15	-19	29
159	-12	12	29	10
157	-11	10	23	-9
158	-7	9	-91	-19
157	-2	25	-118	-2
158	2	26	-77	-4
158	-5	19	-47	-6
158	-4	21	50	7
158	-3	17	63	-3
157	-1	19	34	-6
158	-3	15	4	-14
158	-9	10	-35	-17
157	-5	13	23	-17
158	1	17	-33	-14
157	3	23	-83	1
158	0	23	-30	-4
158	-3	11	-30	-29
157	2	10	-25	-12
158	7	17	0	4
157	8	19	-1	15
157	10	24	-10	22
158	8	19	16	3
157	7	19	62	4
158	7	18	21	9
157	4	19	-127	35
157	5	17	-104	38
157	0	11	-60	28
157	-2	11	-75	24
158	3	15	92	7
157	5	17	193	-3
158	6	21	147	-13
158	5	25	-29	-16
158	6	21	-38	-18
157	5	19	41	-11
158	11	21	30	0
157	4	15	167	12
157	7	16	140	2
157	5	18	77	3
157	-8	11	-12	14
158	-21	14	-63	6
157	-17	15	52	-7
157	-4	11	28	-25
157	3	19	-84	-27
158	18	19	-42	13
157	25	24	35	29
157	30	26	38	6
157	30	24	31	3
159	20	18	-86	4
157	16	21	-255	2
158	19	25	-205	-7
158	12	24	42	-6
158	5	23	180	-21
157	4	20	235	-35
157	0	11	180	-29
157	-3	5	152	-33
157	-10	4	16	-15
158	-12	22	-139	-4
158	-8	27	42	-13
157	-4	11	-8	-7
157	3	20	-54	-2
158	8	19	-45	10
157	12	23	-63	37
158	18	18	120	36
158	17	16	161	30
158	5	22	6	48
159	5	16	-33	49
158	10	17	58	35
158	11	19	-32	29
157	3	22	-21	17
157	0	11	-28	-3
157	-4	9	-74	-28
157	-1	20	-48	-57
158	3	18	-10	-63
158	1	13	25	-46
159	1	15	-4	-38
157	-1	15	0	-22
158	-1	19	-43	-4
158	1	24	35	4
158	1	23	8	20
158	-1	21	-67	24
157	0	22	-23	19
158	0	17	-29	6
158	-3	15	8	7
158	-7	22	3	16
157	-7	23	-19	15
158	7	17	-68	4
158	10	16	-193	12
157	4	29	-212	30
158	11	25	-25	16
157	15	14	70	14
158	26	17	143	16
157	33	13	248	13
157	34	24	155	9
157	33	24	178	-1
158	28	16	151	3
157	19	18	47	-3
157	4	11	-39	9
157	-1	13	-90	9
158	0	20	20	13
158	-7	18	87	22
157	-2	14	109	9
157	6	21	27	6
158	1	22	-75	-4
158	-1	22	-165	-24
158	-4	25	-130	-22
157	-5	18	-5	-15
158	-1	15	-68	-21
158	5	19	-37	-9
158	1	19	61	8
158	1	19	48	3
158	1	24	8	-5
157	2	16	-50	-5
157	5	15	-48	-6
157	7	17	-71	2
158	10	21	52	0
157	7	15	161	-8
158	3	11	178	2
158	-1	12	200	-3
158	-4	8	-13	-2
158	0	22	-63	14
157	0	22	-32	18
158	-2	24	-100	14
158	3	24	-71	9
157	4	13	-4	15
157	3	15	36	18
157	7	14	31	2
157	12	22	27	-1
159	10	17	29	-16
158	5	19	58	-29
158	4	24	102	-16
157	3	13	81	-19
158	-3	17	-59	-14
157	-12	17	-167	-6
157	-16	17	-137	-6
158	-12	18	-20	-5
157	0	15	53	-11
158	4	17	75	-4
157	12	17	21	4
157	20	13	-15	7
158	16	19	-6	9
158	18	21	28	-16
158	15	17	95	-36
157	14	21	-56	-15
158	18	20	-45	17
157	17	19	6	15
157	14	15	-38	3
158	20	10	25	4
157	25	18	-12	4
158	26	30	-23	28
157	16	21	21	21
158	6	12	102	4
158	3	15	141	4
157	-3	14	148	16
157	-5	19	111	24
157	-7	19	-12	18
157	-11	16	-127	21
158	-7	20	-165	6
158	-3	24	-48	16
157	2	24	-29	22
158	-3	16	17	11
158	-6	16	-1	8
158	-3	19	-78	-13
158	1	19	31	-31
157	17	25	-8	-25
158	17	24	-42	-12
157	3	17	13	-22
158	3	19	-26	-17
158	5	25	33	-8
157	4	21	174	-9
157	0	20	111	15
158	0	22	-14	24
158	1	15	-4	12
157	0	14	-5	11
157	2	19	4	15
157	10	15	-18	17
157	11	18	-97	20
158	7	21	-62	6
158	2	15	111	-5
158	-2	11	172	-13
158	-5	11	-15	-3
158	1	15	-26	13
157	5	15	-22	9
157	8	18	-30	17
158	9	22	19	3
158	9	21	-7	-12
157	13	15	-25	-11
158	12	15	1	-5
157	10	19	92	6
158	4	14	-6	4
158	0	14	-16	4
158	7	22	49	-2
158	8	18	46	-9
158	9	19	17	-10
158	12	23	-29	-9
158	9	20	9	-16
157	3	18	-4	-17
158	-2	17	9	-18
157	-10	17	-45	-2
157	-10	20	-51	4
157	-6	18	-10	0
157	3	21	-20	12
158	23	16	-3	12
157	28	22	-12	8
158	20	30	37	11
158	12	25	17	27
158	4	15	31	26
158	0	14	4	29
158	0	18	-20	30
158	-1	10	122	16
158	-1	16	108	5
158	3	18	85	-6
158	0	17	97	-21
157	-8	17	-59	-17
158	-25	17	-183	-10
157	-33	21	-137	-22
157	-17	19	-37	-35
158	7	14	98	-34
158	12	9	166	-25
158	10	1	128	-10
158	20	7	86	3
157	42	29	-19	-6
158	33	29	53	-4
158	16	32	12	8
158	18	34	-85	23
157	15	21	58	35
157	5	19	41	26
159	9	19	-44	16
158	8	21	-94	6
157	11	12	-78	3
158	16	15	-10	7
158	18	17	0	2
158	12	14	-145	-8
158	3	16	-197	-4
157	0	11	-102	11
158	0	14	-131	2
158	-5	18	94	-6
157	-1	26	249	-9
158	10	24	36	-12
157	12	25	-33	0
158	1	22	23	14
157	-6	17	25	17
158	-7	11	80	9
157	-8	14	102	9
158	-6	13	116	10
157	-4	15	128	-1
157	-5	16	-7	-5
157	-6	14	-35	-10
158	-3	19	-67	-18
159	0	21	-39	-9
157	-4	23	-8	-4
157	0	23	-63	7
157	11	20	-33	-2
158	13	8	27	-8
157	14	9	107	-3
157	17	14	86	0
157	14	21	1	31
158	10	24	-43	31
158	1	17	47	22
158	-6	18	81	12
158	-5	12	57	-9
158	1	14	15	-29
157	10	21	-31	-23
158	5	15	8	9
157	8	22	-89	-6
158	26	30	-54	2
158	30	17	19	20
158	13	18	28	15
157	7	19	63	10
158	3	17	37	-15
158	1	21	4	-27
157	3	19	-98	-36
158	3	23	-67	-22
157	3	18	-122	19
158	1	20	-65	17
157	-3	18	106	18
158	-2	21	34	13
157	0	16	15	11
158	4	18	0	11
158	13	25	-32	-4
158	12	21	43	-7
158	4	18	205	-7
157	4	13	111	-1
158	3	17	-102	2
158	-1	17	-52	9
158	1	14	22	10
158	-2	13	4	20
157	-17	16	35	16
158	-25	14	-3	0
158	-24	17	-31	0
157	-22	19	49	3
158	-4	15	74	9
158	8	26	-48	3
159	19	24	-90	2
157	36	21	-17	7
158	38	19	-89	-7
158	33	21	-24	-22
158	37	25	14	-24
157	40	27	-22	-33
157	24	19	109	-16
157	16	14	235	-8
158	11	17	105	-12
157	5	14	-80	-5
158	-1	18	-60	-6
157	1	19	-84	21
157	3	15	-29	22
157	1	13	93	32
157	-2	15	135	38
158	-9	14	49	30
158	-6	14	47	20
157	-10	13	64	-5
157	-1	19	-30	-7
157	5	24	-63	-7
158	1	17	-80	-9
157	1	14	-53	-13
158	-6	10	-30	-11
157	-1	14	26	0
158	1	14	33	-7
158	-4	14	-44	-21
157	-4	19	-1	-11
157	-2	15	64	-7
157	0	17	17	-2
157	3	24	13	4
158	4	27	21	17
158	0	21	28	27
158	13	22	54	17
157	21	25	52	0
157	18	20	58	-12
158	7	25	26	-6
157	-2	20	-68	-1
158	-8	13	-191	5
158	-8	19	-119	19
158	2	15	-11	24
157	4	15	34	20
158	10	16	48	23
158	14	16	16	15
157	18	22	54	3
157	14	18	84	-8
158	1	17	55	-6
158	-2	13	8	7
158	-1	10	-26	-5
157	-1	15	-137	-8
158	4	25	-53	-7
157	3	22	111	-10
157	9	19	118	-13
157	31	27	40	4
158	37	24	-29	8
158	24	23	3	3
157	12	27	-19	-1
158	8	22	29	0
158	6	19	15	6
158	3	14	32	-5
158	-1	13	85	-6
158	-1	18	-82	-24
158	0	19	-135	-36
158	-2	17	-83	-18
157	-5	10	-70	-1
157	-5	9	-30	3
157	-3	17	-60	4
158	1	24	-123	0
157	2	18	-84	-11
158	0	8	152	-22
157	7	5	315	-6
157	3	10	185	9
157	5	17	251	15
157	2	19	204	33
158	-2	22	0	26
158	-5	20	52	31
157	-2	18	-10	37
157	1	15	-99	40
157	0	25	-95	31
158	0	21	-9	19
158	2	15	-63	8
158	5	19	-66	-10
158	13	19	81	-4
157	21	22	42	-31
157	15	21	28	-46
158	12	21	-41	-34
158	11	24	-109	-54
157	10	26	-173	-41
157	4	19	-194	-23
158	-1	14	-111	-25
157	1	15	-80	-8
158	4	21	65	11
157	11	23	152	17
157	8	19	46	16
157	-1	13	75	15
158	-12	3	69	11
157	-9	8	-22	11
157	-1	15	-86	12
158	0	16	12	3
158	6	14	167	13
157	5	23	70	21
158	9	27	100	19
157	16	20	171	14
158	16	11	71	11
157	14	6	-11	20
158	12	19	-36	19
157	18	25	-20	24
157	26	22	4	22
157	32	28	-5	22
158	22	28	-7	19
157	3	20	46	4
157	-4	18	-4	-10
157	-3	20	-27	-17
158	0	18	10	-23
158	2	19	-115	-27
158	0	21	-167	-18
158	-1	26	-130	-15
157	2	23	-129	-12
158	3	21	-90	-6
157	4	23	-55	-6
158	0	19	5	1
157	1	11	80	8
157	-1	10	138	11
158	-1	15	222	15
157	-3	18	194	17
157	-7	18	-37	19
157	-9	12	-48	19
158	-10	6	57	18
157	-6	16	82	13
158	1	18	80	2
158	10	23	-31	2
158	22	29	35	-6
157	21	18	72	-12
158	14	15	58	-25
158	3	13	33	-46
157	-3	15	-72	-46
157	2	22	-63	-21
158	8	22	-58	6
158	11	22	-78	2
157	11	17	-91	-7
158	11	15	-35	7
158	13	15	69	13
157	11	19	12	10
158	4	17	-35	18
157	5	18	-20	20
157	8	23	-60	15
158	4	13	43	10
158	-1	15	87	1
158	0	24	102	7
158	3	18	146	4
157	3	18	40	-8
158	5	14	-23	-2
158	0	13	0	-5
158	-1	15	117	4
158	1	11	98	6
157	3	23	-70	17
158	4	29	-4	19
157	-1	13	58	12
156	0	10	-54	23
157	-3	17	-116	5
158	-2	20	-89	0
157	6	24	-88	4
158	12	22	-94	4
158	19	23	-9	-5
158	14	24	4	-9
158	3	18	29	2
158	-11	14	93	8
157	-16	17	108	-2
157	-10	18	123	-19
157	-4	12	88	-6
157	5	9	61	-3
158	9	10	9	-3
158	14	17	-167	-14
158	23	15	-158	-14
158	29	21	79	12
158	26	31	28	17
157	20	23	-79	26
157	12	18	-19	35
157	10	15	-27	17
157	9	19	-13	-18
158	1	15	-8	-42
157	0	17	60	-35
157	4	25	104	-24
157	12	24	47	-14
157	16	22	59	-11
158	12	16	23	-25
157	2	21	-45	-21
158	-6	23	-57	-8
157	-4	19	-71	2
158	-5	19	-117	17
158	-3	17	-78	34
158	-4	21	-32	35
158	-2	21	-4	26
158	-2	20	136	11
158	-7	15	160	4
158	-4	18	56	-2
158	11	22	57	-12
158	5	18	104	9
158	-16	15	28	34
158	-7	13	1	25
157	8	14	-4	9
158	9	14	-124	-2
158	15	17	-118	-14
157	19	19	-47	-44
158	23	19	10	-39
157	27	19	75	-8
157	18	22	107	-9
158	10	12	133	-7
158	8	16	24	-4
157	7	26	23	2
158	1	22	108	-2
157	-11	23	1	-5
157	-12	22	-12	-6
157	-8	14	-49	-5
158	-4	14	-98	4
158	-2	12	10	7
158	7	12	121	9
158	15	18	81	7
158	23	19	-10	19
157	18	20	0	16
158	11	19	-35	18
159	10	17	-15	21
158	7	19	-23	14
158	6	17	-74	11
157	0	16	-78	4
158	-1	19	-108	4
157	-3	19	-68	6
158	-2	19	48	11
157	1	23	110	5
157	2	16	88	0
157	3	14	74	4
159	1	19	-17	11
157	-1	19	-78	9
158	-11	13	-11	4
157	-14	12	27	3
158	-12	12	39	-3
158	-7	18	36	-2
157	2	21	-8	0
158	1	15	0	-6
157	15	27	-8	7
157	29	25	-64	10
157	41	22	-3	3
158	37	23	21	6
158	27	20	-10	14
158	19	19	41	19
157	9	17	112	0
157	5	21	120	-16
157	-1	11	5	-6
158	-3	14	25	-6
158	1	19	85	-19
157	3	20	22	-22
158	7	24	31	-15
158	7	19	-70	-10
158	5	19	-124	-4
158	5	16	-66	7
158	-1	19	-40	11
158	0	17	-25	8
158	-1	15	25	-7
157	-4	18	164	-6
157	-3	17	69	-5
158	-1	21	-23	-12
158	-1	20	-20	-6
157	-1	22	-103	-4
157	-2	22	-22	4
158	-1	19	-16	8
158	-1	16	-44	11
158	-5	10	25	9
158	-4	14	50	27
157	0	13	96	28
157	0	13	101	15
158	4	26	-49	12
158	10	25	-185	-16
158	20	21	-86	-41
158	22	19	26	-37
158	12	11	87	-3
158	15	19	110	-4
157	14	22	88	-13
157	11	19	26	0
157	9	21	-16	-9
157	4	13	-36	-16
159	1	16	-81	0
157	5	24	10	17
157	8	18	70	14
157	1	12	57	10
157	1	13	81	6
158	4	17	69	-1
158	6	19	-65	-6
158	8	12	-116	0
158	7	16	-46	26
158	8	22	-42	32
157	4	12	52	26
158	2	12	60	16
157	1	14	2	9
158	1	20	-42	8
157	3	22	-70	18
158	4	15	-41	24
158	5	11	5	-6
157	2	17	110	-37
158	8	24	120	-46
157	3	15	98	-64
157	-2	9	21	-43
157	5	12	-87	-4
159	8	30	34	1
157	4	30	135	2
157	-3	19	16	14
158	3	25	-26	18
158	3	21	-63	17
158	3	16	-107	20
157	1	19	14	25
158	-7	17	134	18
158	-8	18	165	11
158	-7	14	122	9
157	-10	15	-1	7
157	-8	20	-97	8
158	5	20	-87	2
157	29	18	-91	7
157	46	22	-44	9
158	37	26	-39	2
158	27	27	-54	14
157	21	24	41	15
157	4	15	0	21
157	4	12	-164	16
157	10	15	-45	-2
158	12	19	101	-5
158	11	22	21	7
157	4	23	-28	30
157	7	21	4	26
158	6	17	96	24
158	3	19	91	6
157	-6	15	74	-19
158	-9	10	-18	-21
158	-5	17	-49	-19
157	-3	20	48	-27
158	-1	18	31	-38
157	-3	16	39	-42
157	2	17	64	-33
158	4	17	47	-22
158	2	16	-4	-15
158	0	16	-4	5
157	-4	19	38	15
158	-17	19	23	9
157	-23	26	-2	8
157	-4	25	-26	11
158	12	12	-145	4
158	16	13	-164	11
158	16	26	116	17
158	23	24	117	6
158	30	17	-49	10
157	27	22	-26	11
158	17	17	-99	-4
158	8	14	-12	-10
158	12	13	47	-11
157	5	12	34	-1
158	1	22	13	4
158	1	21	-12	11
157	3	19	72	8
158	7	23	34	3
158	4	17	16	-1
157	3	14	19	-19
157	-2	17	-18	-19
157	-6	15	-18	-20
158	-6	18	-11	-13
157	-5	15	0	4
157	-6	13	21	6
157	-5	15	45	11
157	-1	9	98	12
158	3	13	172	10
157	8	10	56	10
158	8	7	-40	18
157	9	21	2	19
157	7	29	-12	15
158	1	30	-13	18
158	-2	24	26	17
158	9	17	3	13
158	13	13	-50	13
157	12	20	-55	13
157	20	17	-6	-5
158	17	14	1	-13
158	18	19	-67	-16
158	17	18	25	-16
157	16	25	17	-7
157	17	21	-61	-16
157	9	21	9	-1
157	7	21	24	18
157	1	12	-16	1
158	-2	17	30	-9
157	-2	12	107	-2
158	-3	12	42	-3
157	-3	16	57	-17
158	0	20	-11	-6
157	0	16	-87	9
158	-3	6	-39	2
157	-3	16	2	8
158	3	22	23	11
158	7	17	66	6
158	9	12	184	8
157	11	10	133	10
157	8	17	0	8
158	4	23	-84	-1
158	-2	26	-103	-9
158	-6	19	-77	-15
158	-7	21	-122	1
157	1	29	-72	21
158	-2	28	59	26
157	-5	17	66	22
158	-8	14	99	19
158	-4	12	39	7
158	3	17	-20	-6
158	17	28	-51	-17
158	33	25	-139	-43
157	20	24	-89	-38
157	18	22	-18	-22
158	19	19	22	-12
157	11	24	140	-1
157	6	19	89	0
157	-3	13	-63	14
157	-2	13	1	26
157	3	17	74	35
158	6	12	159	35
157	5	19	40	39
157	11	18	2	34
158	5	14	66	-1
158	-10	19	-17	-20
158	-23	21	-9	-40
158	-13	17	-80	-57
157	-3	14	-26	-21
158	4	15	41	5
158	8	14	2	0
158	12	18	-55	14
158	30	21	3	12
158	36	19	20	10
157	21	25	-65	3
158	12	24	-51	9
157	7	15	-61	24
158	0	14	27	18
158	-3	13	36	19
158	1	22	-51	2
158	2	15	-31	-14
158	11	19	24	-15
158	20	27	133	-27
158	16	13	346	-34
157	9	22	283	-15
158	6	29	-19	-2
157	1	22	-116	3
157	-1	20	-135	9
157	-6	16	-71	5
157	-3	21	50	18
157	0	29	27	14
157	-1	22	-31	0
158	-5	14	3	7
157	-6	6	28	11
157	-2	11	46	-17
158	0	18	21	-21
158	5	13	-27	-8
157	11	20	-30	-10
158	10	19	13	2
157	4	15	38	4
157	-2	17	-47	3
157	-17	11	-81	10
158	-10	13	-75	19
157	1	19	-74	15
158	3	23	-34	19
158	3	24	-33	27
157	1	18	-20	11
157	10	18	-12	4
158	20	22	-43	-3
157	22	23	-15	-13
157	19	21	-13	-7
158	23	19	-22	2
158	24	24	-42	11
158	16	22	-9	6
157	13	20	43	11
158	7	15	111	2
157	-6	7	288	-6
158	-3	10	180	0
157	7	19	82	3
158	4	23	83	17
158	0	19	-49	20
158	-3	18	-114	10
157	-2	15	-172	17
158	1	19	-124	15
158	-3	14	75	-13
158	-1	2	259	-30
157	2	12	24	-38
158	8	27	-136	-47
157	12	28	12	-38
157	18	25	-13	-12
157	14	15	19	-2
158	0	14	52	1
158	5	19	-11	8
158	5	19	-17	6
158	4	21	3	14
158	8	22	-28	14
159	-2	15	-19	11
157	-7	17	-71	6
158	-7	18	47	3
158	-5	8	246	6
157	4	18	132	5
157	11	19	23	10
158	9	17	-26	19
158	16	23	32	18
158	20	13	49	17
158	15	14	20	16
157	10	15	66	9
158	7	12	17	-4
157	4	19	-65	0
158	4	23	-98	6
158	5	24	-44	-7
158	1	18	-36	-14
158	1	23	-77	-20
158	-1	22	-95	-18
158	-1	19	-28	-13
157	5	18	8	-12
158	5	24	-40	-10
157	9	27	5	-6
157	11	18	-44	0
158	9	23	-34	10
157	4	18	52	19
157	1	13	10	13
157	7	16	32	17
158	7	19	13	14
157	8	19	-25	9
158	6	23	-11	12
157	5	22	-24	0
158	4	17	17	-4
158	-13	21	23	-3
158	-36	19	-28	-5
158	-32	14	-23	6
158	-12	8	56	22
158	-1	0	165	13
157	11	10	78	4
157	26	18	44	10
158	36	19	50	10
157	46	26	-22	13
158	53	33	51	6
158	47	23	46	-6
157	29	23	-24	-18
158	11	24	-84	-14
157	8	23	-26	-20
158	0	19	34	-7
157	-5	12	9	7
158	-4	17	13	9
158	-5	17	-20	7
158	-3	19	17	11
158	-5	18	33	22
158	-5	15	43	18
157	-8	17	94	-9
157	-10	13	44	-35
157	-9	8	-10	-44
158	-6	12	-52	-30
157	-5	18	-88	-14
157	-5	20	-64	-16
158	-5	21	-38	-22
158	-1	22	25	-37
158	8	23	74	-56
158	7	26	15	-35
157	7	21	46	14
157	4	19	87	20
158	0	22	91	24
158	6	23	82	25
157	7	24	85	32
159	9	28	69	46
157	11	25	-94	29
157	7	17	-226	14
158	0	10	-217	-7
158	-1	10	-82	24
158	4	15	38	46
157	5	12	176	35
157	3	13	100	34
157	3	15	19	17
158	-1	15	78	19
158	5	25	-8	9
158	7	26	20	0
158	12	21	-77	-2
157	21	15	-40	-15
158	16	13	37	-18
158	8	21	-116	-21
157	10	28	-102	-15
158	9	21	0	-15
157	5	15	35	1
158	6	17	16	7
158	5	21	82	4
157	4	21	197	3
158	5	15	95	-9
158	5	13	-35	-14
157	5	11	-40	-22
158	2	8	-67	-11
158	2	9	-18	-7
157	0	14	-96	-14
157	3	15	-127	-5
158	6	22	-47	7
158	7	19	-83	2
157	8	16	24	0
158	4	13	145	5
158	1	13	104	8
158	0	19	49	19
157	1	18	143	24
157	3	17	184	21
157	3	11	105	14
157	5	16	14	15
157	4	15	-51	-1
157	6	20	-98	-6
158	9	26	-69	-11
157	8	19	-36	-13
157	5	17	-51	-7
157	5	13	-3	-10
157	4	16	47	-1
158	5	21	60	-5
158	8	22	-27	0
158	9	26	-24	11
158	10	23	16	8
158	5	14	14	12
158	5	21	15	3
158	4	23	-15	-4
158	5	22	121	-7
158	0	22	201	-6
157	-4	24	132	4
157	3	17	60	14
157	0	13	-71	9
157	7	19	-193	20
158	18	15	-163	20
158	17	20	-66	18
157	20	15	-36	15
158	15	22	-39	7
157	4	19	-38	7
158	3	17	-13	-11
158	7	22	-6	-22
157	-3	18	16	-25
158	-16	23	85	-22
158	-20	21	149	-12
158	-13	19	65	0
158	-8	17	2	4
157	-1	17	31	-6
158	5	20	-24	-2
157	18	17	-8	-7
158	28	22	-19	-17
158	33	22	-36	-18
157	30	17	13	-11
158	27	15	32	-10
158	24	10	90	-9
157	12	17	48	10
159	10	19	-43	16
158	0	16	-40	22
157	-1	18	-20	16
158	1	17	-11	3
159	-3	14	23	4
157	1	18	-20	13
158	-1	25	-52	13
157	-1	18	-33	9
158	-3	20	-46	13
158	0	22	-48	14
158	2	22	30	14
158	-1	14	110	4
157	-2	8	63	6
157	-3	12	13	2
158	-5	14	-6	-10
157	-5	13	-1	-13
158	-2	17	30	-6
158	-4	21	30	8
157	-3	21	29	4
157	-3	19	68	0
158	1	19	34	0
158	15	19	-33	-1
157	16	18	-79	-12
157	8	13	37	-22
157	26	12	203	-1
157	25	16	55	-5
157	15	24	-40	-17
158	15	26	-70	2
158	16	27	-147	14
158	15	26	-100	14
157	5	19	-12	12
158	-2	15	148	5
157	-3	15	191	17
157	2	22	64	30
157	1	16	-25	42
157	-1	15	-72	30
157	-1	17	-97	14
158	-5	14	-42	14
158	2	18	-27	-4
158	-1	15	-30	-15
157	4	22	25	-18
157	7	20	49	-25
157	4	16	64	-27
157	2	14	38	-28
157	1	14	36	-36
157	3	17	-54	-31
157	-1	16	-35	-26
158	2	19	81	-16
158	5	15	-23	-6
158	3	16	7	-6
158	3	17	27	6
158	8	19	-30	1
157	8	19	-82	3
158	10	22	-49	28
158	10	25	-17	35
157	7	22	32	31
157	4	19	155	23
158	3	17	121	21
158	5	17	39	13
158	8	14	33	2
158	3	16	93	-7
157	6	23	-1	-7
157	6	17	6	-11
157	2	13	-17	-31
157	0	19	-98	-18
158	1	26	13	12
157	-11	24	-6	23
157	-13	21	-27	23
157	-7	14	111	15
157	-6	12	170	6
157	1	9	-24	7
157	-2	8	-79	20
158	-3	12	-7	14
157	2	14	-66	0
158	3	22	-14	-7
158	12	24	-38	-20
158	20	21	-25	-22
159	31	22	-23	-6
157	47	22	-39	-3
157	38	25	0	-2
158	27	24	-39	-1
158	24	18	6	-1
157	13	13	17	-1
158	6	17	7	-13
157	1	23	21	-5
158	-1	19	13	8
158	3	18	-16	10
158	1	15	-18	13
157	0	18	-2	15
157	-2	22	13	16
157	-4	19	24	13
158	-5	15	29	13
158	-7	12	78	3
158	-4	17	73	-1
157	-5	24	57	2
157	0	12	20	0
158	1	16	-42	-7
157	-3	20	-33	-14
157	0	18	12	-8
157	-1	19	6	7
158	-2	16	-37	6
157	1	14	-52	4
159	19	24	-88	-5
158	14	21	3	-6
158	-1	14	67	6
157	0	19	89	3
157	-1	15	64	13
158	1	17	-1	17
158	1	18	32	7
157	1	13	-77	4
158	11	21	-91	2
157	13	26	60	-3
157	9	15	37	-1
157	10	15	-20	-7
157	5	18	-19	-12
158	3	12	25	7
157	8	20	88	14
157	7	19	149	13
157	1	17	49	4
158	3	19	-78	-9
157	7	19	-28	-11
158	5	21	-41	-5
158	3	20	-23	-2
157	4	22	-16	0
158	5	19	97	-1
157	7	22	255	10
158	11	19	130	13
158	10	16	20	17
157	7	10	-56	21
158	2	14	-55	-5
158	1	15	-26	-21
157	7	12	-268	-49
158	6	22	-284	-60
158	0	19	23	-27
158	-2	20	130	16
157	1	25	6	32
157	4	24	33	26
157	8	23	131	12
157	11	23	139	4
157	10	21	118	-7
157	10	17	18	-26
158	10	24	-13	-14
157	11	25	-18	-8
158	10	21	40	-10
158	6	13	98	-15
157	7	5	40	-1
157	3	9	-67	21
157	2	18	-86	22
158	3	22	-63	22
158	4	14	-99	25
157	-8	14	-45	28
158	-23	15	-10	20
157	-24	14	8	18
157	-15	17	10	11
158	-1	12	46	0
157	17	18	73	-8
158	26	24	-6	-15
157	33	21	4	-11
157	36	19	49	-6
158	37	23	13	1
157	31	23	-57	13
157	21	22	-72	8
158	13	18	38	6
157	5	15	33	13
158	-6	13	-157	2
158	-12	11	-127	2
157	-3	15	46	13
158	-1	23	80	21
159	-2	18	150	17
157	-2	20	137	10
158	-3	23	70	11
157	-5	21	47	9
158	5	28	-11	9
158	20	22	-32	-7
158	8	17	-55	-21
158	-1	15	-31	-28
157	-1	15	7	-40
158	-3	17	-20	-43
157	0	19	-9	-29
157	-1	17	15	-4
157	-1	11	27	4
158	1	14	49	7
158	10	12	32	16
157	11	17	9	28
158	6	18	-14	23
157	6	25	-47	2
158	6	21	-10	-7
158	-3	6	26	-8
157	0	12	24	2
158	8	17	61	17
157	7	21	-64	16
158	3	23	-120	10
158	3	17	-2	-3
157	1	17	-21	-5
157	1	15	-11	6
158	0	16	39	11
157	3	17	24	10
158	4	19	-23	0
158	7	19	-56	-1
158	7	16	-16	-13
158	2	18	32	-11
157	3	18	38	-1
157	11	18	110	3
157	10	15	141	-3
158	3	23	26	0
158	-4	26	57	13
157	-10	19	183	11
158	-10	16	6	9
157	-4	15	-87	3
157	0	14	12	-8
159	7	18	-18	-14
158	14	24	78	-7
157	25	26	64	3
158	29	24	-3	9
158	24	27	-77	11
157	14	28	-99	16
157	12	15	34	18
158	10	14	5	29
157	5	18	-4	24
158	5	24	37	-4
158	1	19	136	-6
157	1	11	6	-4
158	3	13	-180	-18
157	1	13	-17	-33
158	0	16	40	-47
157	-5	8	-15	-38
158	-4	14	-63	-13
158	4	19	-11	-20
158	5	19	-21	-28
157	3	16	-24	-21
157	0	17	42	-5
158	-11	20	11	7
157	-14	18	31	19
157	-2	24	-5	22
158	3	21	17	13
157	8	18	48	16
157	13	18	40	16
157	13	13	-13	20
157	22	21	-36	26
159	27	23	-29	25
157	25	21	-104	19
157	20	21	-28	13
157	10	13	111	1
158	4	9	27	-6
158	-1	13	-151	0
158	0	28	-59	13
157	5	27	-17	11
158	3	21	-84	0
158	4	22	-29	6
159	5	18	50	-3
157	12	18	150	8
157	17	15	103	8
157	2	10	33	-2
158	-1	14	26	6
157	-1	17	-22	15
158	-4	18	-19	13
157	-5	19	182	-4
158	-2	18	353	-5
157	0	13	166	-9
158	-3	20	-17	3
158	-4	27	-25	13
158	-3	15	-32	12
157	4	12	-42	10
157	15	18	-67	1
157	22	19	-15	-2
158	20	17	-35	-24
157	14	17	-98	-42
158	14	20	-51	-48
157	10	20	-20	-24
157	5	24	27	-6
158	5	29	167	-3
157	2	25	204	4
157	-4	17	19	11
157	-1	15	-125	22
157	3	19	-175	-7
157	3	23	-124	-18
157	1	18	31	-9
158	4	11	-18	-6
157	8	12	-98	-4
158	3	13	-22	-11
157	0	17	-44	-2
158	0	14	-10	-1
157	1	14	41	12
158	1	14	40	15
158	3	18	28	6
157	8	24	-8	2
158	6	20	-12	6
157	2	19	-30	18
158	-2	22	27	15
158	-5	20	80	15
158	-6	23	45	16
158	-1	23	65	21
158	3	18	91	23
157	7	18	15	9
158	10	17	24	5
158	18	17	65	10
157	31	24	73	16
158	30	23	81	11
158	21	22	-30	0
158	16	15	-31	4
158	16	13	10	3
157	13	19	-13	2
158	7	23	-48	7
157	3	17	-81	2
158	-1	13	-67	-9
158	0	17	-75	-18
158	2	16	-51	-17
158	2	15	-62	-13
157	-6	17	-2	-9
158	-18	19	108	4
157	-19	24	101	16
157	-16	17	69	-1
158	-14	9	29	-14
158	3	12	-14	-12
157	8	13	-17	-19
158	11	12	-27	-5
157	15	15	-39	-5
157	17	18	-30	-7
157	32	24	-21	1
158	31	26	46	-2
157	27	31	63	-1
158	26	35	30	13
158	18	28	32	16
158	3	19	-5	18
157	-1	15	17	7
157	-5	13	71	0
157	-7	11	63	5
157	1	16	41	2
158	-4	17	0	-2
157	-2	18	-36	-6
157	-3	17	-44	-2
157	-2	15	-10	-1
158	0	16	25	5
158	1	13	14	15
157	0	12	-33	18
158	-1	17	-71	12
157	1	20	-40	6
158	-1	16	-26	2
158	0	14	-24	-4
158	-1	16	27	-13
158	-1	23	68	-6
157	3	28	7	4
157	3	27	-82	2
158	1	25	-59	9
158	10	29	-33	7
158	10	26	231	8
158	5	9	469	19
157	5	13	316	25
158	7	14	58	34
157	10	15	-110	21
157	11	22	-84	-5
158	10	14	-112	-26
158	6	19	-183	-40
157	7	19	-81	-35
158	8	19	12	-30
158	5	11	60	-18
158	2	12	45	-10
157	4	11	34	-21
157	1	3	33	-18
158	-1	21	-52	-11
158	0	21	-114	-12
158	-2	22	-126	-9
157	1	19	-24	-15
158	0	13	27	2
158	5	21	-93	13
158	6	22	-97	9
158	11	22	0	7
158	20	24	38	7
157	16	26	43	13
157	8	24	23	19
157	3	19	13	28
158	1	19	17	34
158	1	18	20	39
157	2	21	38	30
157	3	21	52	25
157	1	18	31	23
157	5	19	-25	28
157	5	17	-15	28
157	3	9	74	18
157	5	13	64	10
158	7	22	-53	-7
157	5	21	-60	-17
158	4	18	-10	-21
157	2	11	-33	-22
158	0	6	9	-21
157	-8	9	107	-38
158	-17	18	186	-53
157	-14	21	106	-57
158	-8	19	-17	-34
157	2	18	4	-10
158	10	17	-8	-1
157	14	16	18	13
158	26	27	33	8
157	34	22	-33	4
158	31	17	-74	8
157	24	21	-91	18
158	20	22	-73	25
157	16	22	-23	23
158	8	17	44	24
158	15	28	29	30
158	19	17	1	37
158	3	15	-2	25
158	-2	23	-2	18
157	0	18	43	11
158	-4	21	67	8
158	-3	17	61	6
157	-2	14	-26	-1
158	0	16	-134	1
157	1	20	-90	-10
157	-3	12	-35	-17
157	-5	9	137	-18
158	-5	15	345	-17
158	-1	10	155	-14
158	-5	14	20	-7
157	3	19	-66	11
158	8	25	-52	13
158	5	15	6	8
157	8	17	-75	4
157	8	22	40	-3
157	5	18	-37	-12
158	6	23	-130	-28
158	5	19	-151	-27
158	7	18	-59	-14
158	10	20	125	0
159	5	16	126	4
157	5	18	208	-1
157	7	13	104	4
157	6	15	-112	13
158	9	11	-72	0
157	6	11	-19	1
158	7	18	-44	14
157	8	23	-37	3
157	8	28	9	2
158	8	22	30	-3
157	3	15	-67	-9
157	1	15	-120	0
157	6	18	-39	15
157	5	24	15	14
158	4	24	86	13
157	9	23	107	12
158	9	17	78	2
157	6	17	17	-5
157	7	24	-90	-10
157	4	19	-140	-14
158	2	18	-128	-2
157	8	24	-26	12
158	10	15	70	10
158	14	19	80	7
158	12	18	147	-6
158	0	9	247	-18
158	-1	11	68	-17
157	-3	18	6	-5
157	-7	12	115	-11
158	-4	15	25	-7
158	1	29	-66	1
158	4	19	-81	0
158	5	14	-74	18
158	8	26	-75	21
157	1	17	57	22
158	1	16	17	21
157	3	17	-145	4
157	0	16	-86	-4
158	3	20	-5	-9
158	4	22	100	-6
158	11	26	172	0
157	20	28	69	-5
157	16	17	12	-7
157	7	15	22	-3
158	3	16	-15	6
157	4	18	-22	13
158	5	25	-86	10
157	-2	26	-35	16
158	-13	16	79	23
158	-11	13	103	14
157	-9	17	68	13
157	-7	10	-24	26
158	-8	14	-20	23
157	-3	19	-18	2
157	5	18	-11	-1
158	24	24	21	-9
157	32	22	18	-16
157	36	24	14	-10
158	44	16	-42	-16
157	34	14	-101	-23
158	26	26	-113	-31
157	17	24	-49	-15
157	10	18	-29	2
158	5	18	11	-6
157	3	18	94	-1
157	-3	18	157	8
158	-4	14	38	10
158	-3	15	-137	8
158	-5	19	-39	9
158	-4	15	-28	19
157	-5	11	22	13
157	-3	19	202	-7
157	-3	11	194	-20
158	-3	13	10	-23
158	-4	21	-87	-18
158	-2	15	-65	-10
158	0	25	-51	-4
157	2	22	7	1
158	2	15	8	4
158	3	18	36	2
157	9	19	97	1
157	10	17	107	14
157	3	12	69	18
157	1	15	-30	17
157	2	15	-91	9
157	1	19	-104	1
157	2	22	-68	2
157	3	20	-2	-5
157	4	17	58	-6
158	5	13	58	0
157	5	19	8	8
158	9	22	0	12
157	9	22	3	18
157	10	25	26	12
157	9	26	2	13
157	8	24	27	15
158	5	19	110	4
157	4	13	95	-2
158	1	6	8	-5
158	0	10	-110	7
158	14	18	-118	5
158	13	13	-13	-18
157	8	14	52	-5
158	7	17	47	12
158	4	18	13	9
158	1	24	-20	15
158	-1	19	-1	8
158	4	18	2	-11
157	6	24	-4	-16
158	4	25	-9	-15
157	7	24	-32	-4
157	4	19	-51	-3
157	7	15	-67	-24
158	8	18	-68	-15
158	9	19	-125	7
158	10	19	-111	19
158	5	18	48	16
158	-3	11	156	7
157	-17	9	156	8
157	-17	17	58	-4
157	-7	18	-90	-18
158	-5	14	18	-18
157	3	14	192	-8
158	7	16	129	-3
157	13	24	93	3
157	21	25	104	9
157	32	19	59	4
158	31	18	-16	11
157	26	22	1	2
157	27	30	-41	4
157	21	28	-33	3
158	6	19	2	3
157	7	16	-68	7
157	7	12	26	3
158	0	16	11	4
157	-1	17	-11	-2
158	-9	18	-32	-15
157	-4	15	-38	-13
159	8	14	69	8
157	10	16	79	20
158	10	25	-13	11
157	1	27	-146	9
157	-3	18	-125	7
158	-3	23	-51	8
158	1	19	-38	21
158	0	14	-9	28
158	2	17	55	7
157	1	20	137	-26
158	-8	17	66	-27
157	-11	13	-3	-14
158	-10	9	12	-10
157	-3	11	2	-15
158	9	15	88	9
158	8	6	69	21
157	8	12	15	15
157	14	26	33	12
158	16	28	24	-5
158	12	26	-27	-11
157	4	26	-93	-11
157	5	28	-85	-1
157	5	23	-42	-3
157	7	17	15	-8
157	6	15	32	-10
157	2	17	-11	-7
158	5	19	6	0
158	1	22	7	0
157	1	20	6	10
158	0	16	71	3
157	2	19	37	9
157	3	18	-12	21
158	4	18	-86	23
158	4	22	-160	21
158	8	19	-95	19
158	9	19	-94	25
158	6	17	-27	25
158	7	15	144	33
157	5	17	205	22
159	1	14	94	1
157	1	15	1	-14
157	3	16	48	-21
158	5	15	4	-15
157	3	17	-17	-15
157	4	16	56	-12
157	5	17	83	-8
158	3	18	73	-2
158	5	21	83	-6
158	9	22	52	0
157	7	17	40	6
158	7	15	18	8
157	5	14	-44	9
157	4	17	-32	-2
158	5	20	-19	-17
158	5	17	-3	-26
157	5	17	57	-24
158	8	13	54	-28
158	5	12	-53	-19
157	8	17	-66	-10
157	11	22	-29	-6
158	10	19	-15	-2
158	13	22	37	-1
158	9	18	69	7
157	-8	13	37	9
158	-21	10	-90	1
158	-20	12	-33	8
157	-10	15	59	20
158	5	15	-42	11
157	13	29	-31	11
158	11	25	19	14
157	17	19	-30	16
159	21	23	-88	19
157	21	17	-95	15
157	25	19	-48	11
158	22	19	35	22
157	15	18	60	4
158	10	18	74	-21
157	6	25	47	-17
158	3	17	-12	-14
158	5	13	3	-2
157	7	18	26	-9
157	3	12	59	-6
158	-2	11	117	-15
157	-7	15	117	-11
157	-5	21	-46	0
157	10	25	-100	4
157	10	25	-40	11
157	0	23	-70	11
157	-3	26	-75	12
158	-1	21	-8	9
157	0	16	52	10
158	-1	15	-62	3
158	3	23	-99	2
157	5	19	-4	-2
157	1	15	31	-6
157	2	17	188	6
157	1	17	136	11
157	3	21	31	12
157	4	19	13	15
157	7	26	-52	16
158	5	17	-29	8
158	4	14	-55	-2
158	5	15	41	-8
158	2	12	167	-10
157	6	11	184	-12
158	3	10	65	-11
158	1	10	-58	-2
158	8	21	-58	6
157	10	25	-16	2
157	11	24	27	0
158	13	22	19	-4
158	8	17	35	-7
158	-1	16	-1	-2
157	1	15	-2	4
158	9	22	-12	-2
158	7	16	35	7
158	7	16	-13	16
157	6	20	-62	4
157	4	15	80	-1
158	6	19	-33	-3
158	7	19	-106	10
158	4	19	-40	26
158	0	13	-24	25
157	4	15	-29	15
157	5	15	-63	-1
158	3	16	-73	-17
158	5	18	-90	-22
157	4	20	-60	-14
158	5	21	-16	-9
157	8	16	63	-18
158	6	18	109	-16
157	7	17	26	-5
158	7	15	57	0
157	3	17	188	3
157	3	19	177	17
158	5	20	70	15
158	7	22	-57	16
158	8	26	-49	21
158	8	24	38	8
158	8	24	18	11
157	6	21	13	19
158	2	19	48	9
157	-7	14	14	-6
158	-11	14	-61	-22
157	-1	18	-62	-28
158	9	16	12	-18
158	11	16	9	0
157	10	15	-49	8
158	7	15	-54	4
157	6	18	-26	-1
158	8	14	-11	-11
157	6	14	16	-7
157	7	17	62	9
158	12	19	55	14
157	14	25	6	10
157	6	23	-4	9
158	4	25	6	12
158	8	24	23	21
157	4	15	17	21
157	5	13	5	-2
157	4	20	-12	-16
157	3	19	-5	-34
157	-2	14	111	-42
157	-12	15	99	-21
158	-15	20	-4	-9
157	-10	19	-18	2
158	-3	18	-52	14
157	1	19	-88	9
158	9	19	-73	3
157	10	18	-32	8
158	16	17	-62	16
158	27	16	-13	16
158	29	16	139	6
158	18	8	172	-2
157	13	14	61	-5
158	11	19	-2	-5
157	9	22	20	0
158	5	26	7	10
158	1	19	6	13
157	-1	12	-36	14
158	-2	9	-40	13
157	1	16	-31	1
157	1	19	-42	0
158	1	19	1	9
157	5	17	2	8
158	-2	15	-33	-4
158	-3	22	-66	-4
157	-1	19	-18	-5
157	3	17	85	4
158	0	9	134	16
157	-1	13	125	18
157	-1	15	63	24
157	-3	10	-20	15
158	11	22	-67	9
158	20	22	-53	6
157	15	20	-79	6
158	9	29	-61	13
158	10	27	-55	0
157	2	21	-60	-19
158	2	22	-35	-20
157	5	18	-28	-28
157	2	19	25	-18
158	6	20	27	-11
157	1	15	110	-8
157	1	17	208	4
157	-1	17	136	-5
157	5	18	104	-8
158	7	18	62	-13
157	3	16	-20	-10
157	1	14	-39	-13
157	-1	13	-83	-16
158	3	19	-64	0
158	8	24	-29	3
157	7	18	84	-4
157	5	18	197	2
158	2	21	75	7
158	1	17	-143	14
158	4	22	-158	16
157	3	25	-125	5
158	5	17	-146	-2
158	9	9	-18	8
158	5	9	41	8
158	4	17	75	7
158	5	27	48	10
157	3	24	51	1
158	0	17	123	-1
157	5	16	72	6
158	5	22	119	15
157	4	21	108	10
157	4	19	93	3
158	13	15	10	-1
158	14	16	-142	-1
157	4	18	-88	6
158	3	19	-99	4
158	1	19	-9	2
157	-14	21	49	7
157	-16	19	-39	7
158	-13	11	35	10
158	-3	14	80	12
157	12	17	28	17
157	18	19	-27	4
158	24	16	-72	-4
158	28	13	-142	9
158	34	15	-103	10
158	32	15	-10	2
157	23	19	36	-5
158	17	21	26	-1
157	13	20	-17	-10
158	1	17	-56	-23
157	-1	17	9	-25
158	1	17	215	-16
157	3	27	138	-9
158	7	26	35	-6
157	0	14	50	-11
157	-3	6	12	-22
158	-4	8	-6	-6
158	1	22	-94	3
157	-1	19	-14	-10
158	-5	18	10	-10
157	-2	24	-50	-1
157	1	27	-21	12
157	7	21	-30	15
157	3	15	-15	20
158	0	21	-15	18
158	-1	18	4	18
158	-1	17	54	24
157	2	19	134	14
158	1	15	136	6
158	3	13	53	2
157	5	10	-105	-10
158	8	17	-51	-9
157	5	19	31	10
158	9	16	-62	15
158	10	16	1	22
158	8	18	-26	22
157	3	19	5	17
158	0	18	-1	25
158	-3	26	-26	13
157	1	29	50	7
158	12	25	2	7
157	8	16	58	1
158	-1	15	69	1
157	1	22	66	6
157	5	19	143	7
158	4	19	146	5
158	8	24	-26	-6
158	9	16	-113	-29
158	8	9	-37	-38
157	3	10	-71	-51
157	3	23	-27	-62
157	5	28	52	-40
157	8	22	81	-29
158	7	19	-100	-25
158	6	22	-144	-19
158	3	19	42	-2
158	6	18	40	16
158	12	18	24	17
158	16	20	17	21
158	13	22	35	21
157	3	15	23	26
157	-3	11	15	20
157	-12	14	69	7
157	-5	19	41	22
157	5	23	-30	22
158	2	22	-145	34
157	-3	26	-167	27
157	-15	21	-117	-1
158	-11	18	-126	6
157	5	16	62	10
158	16	15	-26	18
158	17	17	-44	10
157	16	8	299	8
157	28	17	267	8
157	29	23	174	7
157	26	24	45	7
157	20	25	-18	-1
158	12	20	-3	-1
158	9	22	-15	-8
158	-1	18	0	-13
158	-10	14	-41	-18
158	-10	13	21	-11
158	0	16	-32	-9
158	5	20	-78	-1
157	3	24	-57	4
157	-5	7	-68	1
158	3	2	-32	-13
157	7	13	70	-20
158	4	14	164	-1
158	4	20	140	4
157	1	10	118	11
158	11	9	50	0
157	23	24	-31	-16
157	16	21	-69	-17
158	5	19	-83	-22
157	5	22	-114	-2
158	10	18	-117	4
157	4	12	-120	11
157	1	15	-129	23
157	2	25	-8	14
158	1	25	139	7
158	1	22	166	-1
157	-2	16	3	-11
157	0	30	-64	-2
157	3	26	-56	11
158	-3	15	-66	7
158	-1	18	21	4
157	1	14	123	-3
158	-2	14	236	-9
157	-5	15	137	-4
157	0	25	51	-2
157	8	25	36	-3
158	8	16	-38	-5
157	4	15	0	-4
158	5	13	-29	-7
158	-1	18	9	6
158	-2	19	-1	13
157	11	24	-33	13
157	15	21	-28	15
158	9	19	-88	20
157	6	23	13	25
158	9	25	8	14
157	11	26	-30	13
157	10	18	-4	8
157	8	18	-85	-14
157	8	20	-78	-9
157	6	17	1	-8
158	3	18	47	-15
158	1	13	73	-12
158	-2	10	56	-8
158	-9	14	45	4
158	-16	18	18	2
157	-12	5	-74	-1
157	-2	9	-125	12
157	8	16	-49	4
158	10	19	-4	4
158	14	25	151	7
158	19	21	146	-9
158	32	23	-40	-9
158	38	28	17	6
157	28	21	-51	9
158	19	15	-32	-1
159	10	15	-21	4
158	5	15	26	10
157	3	20	124	13
158	0	22	78	20
158	1	22	118	22
158	1	24	16	10
157	1	19	-22	-3
157	-2	8	16	-2
157	0	4	-11	-8
158	-5	11	-2	-15
158	-3	17	-4	2
158	0	17	20	6
157	-2	16	34	-1
158	-1	13	-33	-5
157	0	17	-25	-3
157	-1	19	34	-1
158	0	17	45	-8
158	2	20	12	-8
157	0	23	-16	-13
157	-1	18	-21	-16
158	3	19	-125	-14
157	2	21	-63	-12
158	-3	23	139	2
157	-6	23	104	16
158	0	23	49	21
157	6	17	48	33
157	16	16	-27	39
157	19	13	-19	25
157	18	13	16	-1
157	20	17	5	-17
157	15	17	-68	-31
157	6	21	-72	-38
158	7	17	-39	-19
157	6	14	-24	-3
157	3	17	-36	-3
158	7	15	4	-6
157	5	25	32	-8
157	5	27	-7	0
158	5	23	46	-1
158	-1	23	-13	11
158	5	14	-1	22
158	5	20	0	16
158	5	19	31	-6
157	1	13	137	-14
157	7	20	35	-8
158	8	15	7	-28
157	1	14	-33	-15
158	2	18	-114	0
158	7	19	-127	9
158	6	21	-80	14
158	1	15	95	12
157	-2	18	105	18
157	-10	18	-19	9
158	-17	16	104	16
157	-14	14	186	15
157	-4	13	99	12
157	1	19	-16	-8
158	10	19	12	-13
158	21	24	88	12
157	36	24	2	14
157	41	17	-43	9
157	38	24	-24	-1
157	27	20	45	6
158	16	10	-38	4
158	10	17	-104	0
157	6	17	0	11
158	1	15	21	6
157	1	20	-67	5
158	1	20	-35	3
158	-1	17	86	-4
158	0	15	16	0
157	-1	21	-13	-5
158	-3	17	53	-2
158	-3	18	19	11
158	-4	21	27	12
157	-6	19	48	11
157	-10	16	-19	4
158	-4	19	-68	4
157	3	26	-43	4
158	3	14	8	2
157	3	17	-27	6
158	14	19	-54	3
158	10	14	-101	3
158	8	18	-149	3
158	14	24	-90	-5
158	10	27	-24	-15
158	8	22	47	-17
157	3	15	121	-26
157	-5	11	198	-31
158	-7	11	174	-15
158	-2	13	122	-5
158	5	28	61	6
157	1	29	-34	11
158	1	24	41	16
157	-1	13	64	15
158	5	15	-61	15
158	9	18	-78	16
158	6	19	20	5
158	4	24	39	-8
157	3	16	14	-20
158	3	18	34	-14
158	5	13	6	-14
158	9	12	-15	-8
157	8	19	-21	-1
158	9	17	-4	4
158	6	16	-31	5
158	5	21	-35	-3
158	3	22	6	3
157	2	19	13	0
157	7	16	-8	9
157	7	16	-77	10
157	5	17	-135	10
158	-2	18	-187	25
157	-5	18	-178	25
158	-5	18	-16	24
157	1	18	225	44
158	15	17	244	42
157	19	13	191	11
157	16	14	143	4
157	22	26	100	-5
158	23	27	111	-14
157	17	21	29	-30
158	10	19	46	-36
158	4	16	-24	-40
158	2	18	-72	-34
157	3	21	-65	-33
158	-4	19	4	-51
158	-1	10	45	-36
158	5	7	-51	-15
157	5	9	-56	-6
158	10	14	-93	3
158	-2	13	-48	22
158	-14	14	-15	27
157	-11	18	19	25
158	-1	19	84	26
158	1	22	72	22
159	-1	24	36	29
157	5	22	-54	35
157	11	18	-95	30
157	24	19	-144	11
157	28	22	-119	9
158	25	24	-43	8
157	17	17	-8	1
158	11	14	108	0
157	5	10	201	2
158	-1	14	118	5
158	-5	19	-82	-6
157	-6	19	-53	-7
158	-3	24	83	-10
157	-1	24	53	-12
158	11	24	14	-6
158	9	20	68	4
157	1	23	90	13
158	1	13	15	9
158	-4	7	-100	7
158	1	18	-152	-4
157	3	22	-87	-14
158	3	22	23	-10
158	5	21	125	-6
157	8	18	111	3
157	9	24	19	11
158	11	23	3	7
157	11	17	43	-1
157	5	17	15	12
157	-3	15	-1	9
158	-5	13	3	11
157	-7	24	-37	15
157	-4	23	-88	8
157	3	18	-115	9
158	4	16	-26	-2
158	0	15	78	-1
158	-8	15	69	-13
158	-6	10	178	-15
157	0	15	218	8
158	1	11	30	3
157	7	11	-82	10
158	11	18	-163	-2
159	20	19	-126	-13
158	27	28	-113	-6
157	17	29	-38	-13
157	-3	22	51	-20
158	-2	19	-8	-19
157	5	15	93	-11
158	10	21	106	0
158	15	28	-2	7
158	13	24	13	12
157	12	22	112	18
157	17	17	97	17
157	16	14	21	10
157	12	12	-24	4
157	8	14	-38	6
157	5	14	-37	6
157	3	14	-68	-5
157	-1	11	-41	-1
157	1	17	-51	-4
158	3	22	-30	-3
158	-2	23	-4	13
157	1	25	20	13
157	4	17	156	4
157	-9	14	165	-5
158	-20	8	99	-4
157	-19	14	23	0
157	-12	19	-1	6
158	0	13	62	2
158	15	14	-38	0
157	17	23	-156	-12
158	12	32	-178	-19
158	18	28	-44	-15
158	24	20	80	-5
157	19	15	51	-3
157	11	14	58	-1
157	5	14	-2	10
157	6	19	-20	3
157	4	22	-35	11
158	3	16	-28	10
157	3	21	-16	13
157	8	27	-36	18
157	23	27	-3	13
157	24	22	-22	6
157	15	23	0	6
158	10	18	13	15
157	3	19	57	22
158	-1	17	79	19
157	-1	9	53	7
158	-1	14	24	-12
157	-2	8	-62	-23
158	-5	11	-158	-8
159	-1	11	-140	-12
158	0	15	0	-17
157	1	21	57	-22
158	0	14	170	-27
159	-3	11	171	-16
157	1	19	66	-16
157	-2	22	40	-7
157	0	21	2	4
157	4	23	21	13
157	5	20	-40	19
157	6	15	59	10
158	4	8	86	-4
158	-1	9	-89	0
158	-2	16	-24	8
157	3	18	132	7
158	8	21	207	12
157	10	23	-74	15
157	12	24	-151	24
158	12	19	58	16
158	8	21	-6	19
157	10	21	-25	17
157	7	19	-58	-1
158	9	21	-36	10
158	7	19	-52	12
158	4	19	-85	11
157	4	21	46	-9
157	3	15	61	-19
157	3	12	74	-14
158	5	18	111	-28
157	10	18	21	-35
158	12	17	-61	-22
158	3	12	-34	-1
157	-3	21	4	0
158	-9	19	17	-7
157	-9	13	4	-9
158	1	17	15	3
157	10	14	91	21
158	13	11	53	27
158	14	22	-3	22
157	15	24	37	11
157	12	18	3	6
159	9	26	-96	-2
158	8	27	-146	-6
158	8	23	-73	4
157	7	21	-17	-4
158	5	19	-14	-9
158	5	19	17	-6
158	0	15	28	0
158	-9	17	-31	16
158	-11	26	-61	18
157	-7	26	4	11
158	-16	15	51	2
158	-19	13	29	6
158	-10	14	4	0
157	5	15	52	-1
157	25	20	72	11
158	29	11	29	6
157	19	14	-11	0
159	18	19	-1	6
158	26	17	67	15
158	25	19	45	6
157	17	21	53	8
158	16	23	53	7
157	17	22	-20	1
158	11	22	-72	-1
157	7	21	-167	4
158	11	22	0	13
157	1	16	266	5
157	-10	11	293	-4
158	-6	18	94	-5
157	-5	19	0	4
158	-8	16	29	-1
158	-7	15	-90	-13
158	-8	12	-117	-19
158	0	18	-130	-7
158	11	25	-91	-5
157	14	22	-32	-7
157	10	24	-37	-6
157	1	23	-31	-6
158	0	20	-24	10
158	9	25	23	16
158	15	22	19	25
158	15	21	4	23
157	6	21	14	12
158	0	13	6	-3
158	-3	10	33	-14
157	1	16	51	-19
158	4	17	46	-30
158	0	7	13	-24
158	0	11	-55	-20
158	-1	23	-29	-6
157	-1	14	30	7
157	0	12	64	16
157	1	13	111	17
157	4	14	15	-1
158	10	19	-67	-4
158	12	19	-10	-8
158	6	17	4	-2
157	3	14	-5	4
158	5	14	-16	7
157	7	14	-13	0
158	8	23	87	-9
158	10	24	94	7
158	8	22	28	6
158	5	22	-24	-2
157	6	25	-46	2
157	7	15	7	7
158	4	10	1	4
158	5	14	11	2
157	3	12	16	4
158	3	21	17	15
157	7	23	6	15
158	9	22	-27	9
158	7	25	-47	9
158	6	19	-118	5
158	7	26	-94	1
157	3	19	-50	-1
158	2	14	18	-3
157	3	14	185	-5
158	4	14	166	0
157	5	18	-15	10
158	3	16	2	6
158	1	22	13	4
157	3	21	-80	11
158	2	14	-45	10
158	4	19	-10	16
157	9	21	112	4
158	6	21	154	6
158	5	17	116	13
157	2	7	170	1
157	3	13	107	-5
158	9	20	-30	-11
157	6	21	-112	-3
158	2	17	-123	-6
157	4	15	-138	-9
158	5	18	-190	-16
157	4	22	-159	-17
158	7	26	-10	-8
158	6	25	80	-20
159	5	17	165	-15
158	6	18	236	-8
158	6	14	107	-2
157	9	11	92	-9
157	9	14	32	-4
157	10	19	-128	0
158	4	19	-132	10
158	3	18	-184	19
157	3	21	-84	19
157	4	22	93	19
158	7	18	180	0
157	5	13	66	-1
158	4	10	-105	-7
158	3	15	-109	-2
157	4	18	-110	4
158	5	18	-71	-3
157	3	14	20	15
158	4	11	196	7
157	5	17	123	-10
158	12	22	0	-6
157	13	16	92	-15
158	4	15	47	-11
157	5	22	11	1
157	-4	17	-2	13
158	-5	21	27	20
157	0	21	-10	16
157	4	19	-91	15
158	5	24	-17	13
158	4	25	88	18
157	8	24	163	22
158	6	21	-3	20
158	3	19	-94	17
157	-1	18	-31	2
157	2	19	71	-4
158	4	17	85	-16
157	5	21	-117	-15
158	15	17	-88	-6
158	16	13	-49	-10
157	9	21	-43	-4
158	4	21	7	5
158	6	24	-40	2
157	5	26	23	3
157	5	18	123	11
158	5	13	7	10
157	3	14	-114	3
157	2	15	-36	-2
157	1	17	13	2
158	10	24	-19	0
158	8	26	25	-7
157	8	23	193	4
158	10	23	191	-1
157	8	17	9	7
157	3	19	-70	8
158	-11	16	-79	2
158	-16	10	-75	7
158	-7	16	19	8
157	0	16	164	-2
158	1	15	127	-17
158	7	22	-39	-12
157	13	22	-56	-5
158	19	26	-77	-2
157	25	23	-21	2
157	21	13	-9	-6
158	22	21	-65	-29
158	17	22	-47	-16
157	15	24	-112	2
157	7	23	33	6
157	-1	19	137	22
157	-1	15	121	28
157	-5	10	147	33
158	-9	12	187	8
157	-10	11	68	-17
157	-8	16	-113	-25
158	3	18	-30	-21
158	1	10	14	-3
157	1	7	-22	8
157	10	16	-44	0
157	10	18	-68	6
158	11	18	-91	23
157	9	22	-78	28
157	8	21	-19	34
157	4	16	82	23
158	3	18	83	14
157	3	17	-58	10
158	3	18	-54	-4
157	1	15	35	-16
158	1	15	72	-24
158	5	20	60	-36
159	4	17	-11	-41
157	3	19	-22	-24
157	0	17	-23	-21
157	1	16	-43	-16
158	1	19	-53	-4
157	8	22	-123	-9
158	8	18	12	-12
157	3	10	143	2
158	6	22	-7	14
158	7	28	-62	18
157	5	22	-3	25
158	6	22	59	20
158	6	16	111	19
158	5	15	118	19
157	5	14	88	17
158	5	14	58	18
158	6	10	34	1
158	5	11	-66	-8
157	5	17	-137	-15
157	5	20	-109	-4
158	7	26	39	10
157	7	20	147	6
157	14	25	100	6
158	12	26	129	-2
158	3	23	126	0
157	2	17	-36	2
158	-2	11	-72	11
158	-2	19	-86	7
158	5	22	-68	0
158	8	20	-3	18
157	5	15	-37	17
157	6	14	-15	4
157	7	9	-13	-7
158	3	11	3	-12
158	5	22	16	-16
158	7	24	15	-17
157	8	22	59	-13
158	3	15	81	1
157	7	11	-16	2
158	8	22	-67	-3
157	5	22	25	-2
158	2	17	-21	3
157	3	21	-19	4
157	-1	19	-26	-1
157	-3	21	-79	-6
158	11	19	-19	-17
157	18	21	39	-2
158	7	23	60	11
157	4	17	-3	21
157	5	19	-20	31
158	5	19	-7	33
158	9	17	-9	21
157	6	15	12	13
158	9	14	49	12
157	5	15	88	9
157	3	13	93	6
158	5	12	16	-13
157	2	13	-67	-21
157	5	15	-22	-12
158	2	13	47	-8
157	4	14	42	-2
158	4	20	-12	3
157	-1	16	-51	1
158	-9	22	-39	7
157	-14	27	-35	16
158	-11	22	-25	4
157	-2	20	-19	-10
157	4	17	19	-17
158	12	22	57	-12
158	13	23	25	-21
158	14	19	61	-37
157	18	14	109	-30
158	24	19	-36	-23
157	24	29	-205	-21
157	15	17	-72	-13
157	10	20	5	8
158	11	20	-37	20
158	3	10	182	21
158	1	16	359	13
157	3	16	210	4
158	-1	17	81	3
158	1	24	49	2
157	3	19	-23	10
159	4	19	-51	24
157	3	21	-79	33
158	1	20	-9	29
157	0	18	-21	29
159	2	19	2	18
158	1	19	2	2
157	1	17	-72	-5
158	4	20	-31	-4
157	6	25	-47	-11
158	5	17	-20	-26
158	3	18	32	-21
157	4	20	46	-12
157	6	18	-3	3
158	10	21	-43	14
158	3	14	-33	11
157	-1	13	-59	3
158	0	15	-52	9
157	-6	16	-41	4
157	-10	15	13	3
158	-5	22	43	3
157	9	22	-59	2
158	14	5	-83	3
157	11	14	-26	5
157	12	15	-1	11
158	14	14	10	13
158	18	21	69	22
157	13	14	89	16
157	8	20	16	-6
157	4	26	-46	-10
158	-1	19	-32	-6
157	1	20	-17	-7
158	4	22	-63	-17
158	4	16	-80	-21
158	4	18	-57	-22
157	2	19	15	-14
158	3	19	16	-4
159	4	21	5	-1
157	8	19	111	2
157	7	18	213	4
158	3	18	199	13
158	-1	14	129	17
158	3	11	122	22
158	4	12	37	24
158	7	15	-23	13
158	2	17	3	-6
157	2	13	-18	-13
158	10	18	-24	0
157	13	22	-30	-1
157	12	29	-56	-6
158	10	28	-25	-11
158	1	23	41	-16
157	-1	18	92	-7
158	2	11	46	1
158	5	21	-52	4
158	8	21	-34	0
157	5	19	-14	-2
158	3	19	-13	6
157	6	18	-30	15
157	5	17	-33	23
157	5	14	-45	18
157	5	14	-98	9
158	4	14	13	1
157	3	13	223	4
158	3	17	177	7
158	1	20	-80	11
157	1	17	-40	7
158	5	21	-25	-8
158	3	19	-102	-10
158	-5	22	-79	-6
158	-14	22	-92	-8
158	-8	14	-15	-6
157	0	17	32	6
157	4	15	121	11
157	12	13	72	9
157	16	19	-54	11
158	22	24	-16	2
157	24	19	21	-14
158	24	19	50	-11
157	17	15	91	-4
158	17	17	133	0
157	14	21	65	0
158	10	19	-6	-8
158	7	18	6	-15
157	1	21	-62	-16
157	2	23	-88	-14
158	1	20	-18	-10
158	1	17	-2	2
157	1	13	21	10
158	1	18	12	14
157	1	24	-81	11
157	-2	20	-78	6
157	-3	21	-66	2
157	2	23	-105	7
157	6	20	-26	-4
158	-4	13	62	-13
157	-6	0	71	-4
157	-5	7	-6	-8
158	-1	23	20	0
158	0	12	206	2
157	10	15	104	4
158	25	23	-6	13
158	18	14	45	15
157	10	22	-47	9
158	1	20	15	5
157	-15	15	47	9
157	-17	16	-29	10
158	-5	14	0	2
157	0	14	-20	0
157	-5	25	-18	4
157	2	25	-9	4
158	10	24	-28	-4
157	22	30	31	-10
158	28	25	42	-3
157	20	20	37	2
157	23	18	28	5
157	19	21	6	-3
157	9	22	49	2
157	7	19	61	9
158	5	19	120	8
158	3	18	75	14
157	3	13	-5	11
157	1	11	16	6
157	1	14	29	9
158	-1	15	22	14
157	2	19	-53	12
158	0	13	-26	-2
157	-3	17	-82	-10
158	1	21	-110	-7
158	1	17	-33	-20
157	0	20	-90	-14
159	0	18	-63	-8
157	-1	17	-6	-7
158	1	18	69	0
157	2	22	53	-3
158	7	21	-52	7
158	11	21	-63	-5
158	12	17	-46	-20
158	11	20	-70	-9
157	12	24	-69	2
158	5	14	-10	-2
157	4	15	41	6
157	8	17	87	9
157	0	14	58	1
157	3	19	38	4
157	7	20	107	-11
157	3	12	128	-14
157	7	19	20	4
157	7	22	-8	7
157	7	17	132	6
158	4	17	89	17
158	3	14	-18	14
157	3	17	-29	10
158	5	18	-65	21
158	5	19	-90	19
158	4	20	-44	23
157	4	23	-50	20
157	2	22	-74	7
158	-1	15	96	2
157	-6	15	208	-10
158	-15	16	174	-6
157	-12	16	8	0
158	0	18	-103	3
158	1	21	-174	-1
158	10	24	-191	-4
158	16	27	-17	-22
158	20	22	86	-18
157	29	14	173	-11
157	23	8	131	-7
158	17	14	0	1
157	14	15	8	8
158	8	13	-28	8
158	4	14	-59	-9
158	4	15	-10	-4
157	9	16	49	-3
157	12	13	97	-8
157	3	18	25	1
157	2	23	-58	0
158	3	19	-23	-1
158	2	22	-5	5
157	1	15	45	15
158	0	14	98	32
157	3	18	52	24
158	-2	17	28	-1
157	-3	22	3	-5
158	-1	19	-40	-7
158	5	29	-51	-17
158	1	22	-40	-13
157	2	21	-17	4
157	12	25	2	6
157	15	17	7	14
157	8	21	-22	13
159	4	20	-63	9
158	4	19	-37	6
158	3	16	15	-7
158	5	16	46	-3
158	2	13	67	2
157	3	13	12	7
157	1	11	20	9
158	1	16	90	10
158	4	21	60	9
157	1	14	19	5
158	8	13	-60	-18
158	4	16	-92	-20
157	-5	17	-37	-8
157	-10	19	5	-15
157	-12	21	68	-5
158	-5	22	23	-6
157	12	17	-64	-15
157	17	14	-60	-18
157	11	15	-61	-17
158	8	17	-26	-6
157	16	14	24	0
158	17	19	33	12
158	12	18	80	19
158	10	15	99	13
157	8	21	60	11
158	7	24	-18	17
158	5	23	-61	18
158	8	17	-58	22
158	3	17	-88	37
158	4	22	-84	25
158	8	18	23	8
157	8	15	85	3
157	10	20	-70	-9
157	5	22	-112	-21
158	-4	19	91	-21
157	-16	24	177	-19
157	-12	22	287	-8
157	-6	14	268	-11
157	0	17	84	-12
158	9	18	6	-4
158	11	20	-47	0
157	17	25	-88	3
157	22	21	-83	-2
158	25	19	-38	2
158	21	17	-82	1
157	17	21	-89	16
158	15	22	-42	23
157	10	24	-50	15
158	4	27	11	7
158	-4	21	34	9
157	-2	17	30	22
157	-4	11	133	7
157	1	17	135	-3
157	-2	11	21	-21
157	-3	5	-37	-28
157	-5	16	-13	-27
157	-5	19	-8	-12
158	-5	20	-59	9
157	-2	17	-71	3
158	2	13	-50	-1
157	1	15	-12	-12
158	1	25	-10	-12
158	4	21	-23	-1
157	7	16	58	9
158	7	17	159	18
157	9	18	90	15
158	9	16	-18	2
158	6	19	-51	-1
158	8	22	-80	13
158	3	17	-37	17
157	2	15	-46	17
158	3	23	-23	21
158	6	16	93	13
158	2	15	137	-2
158	0	18	117	-21
157	1	13	-1	-25
157	7	9	-36	-4
158	5	14	16	7
158	0	11	29	8
157	4	15	-13	19
158	-1	25	-56	16
157	4	21	-70	8
158	19	17	-79	3
158	23	21	-55	-8
158	15	21	-52	-6
158	11	21	-37	-5
157	10	22	16	0
158	7	17	83	11
158	7	24	62	2
157	5	26	43	-6
158	7	21	-25	-16
158	3	22	-77	-26
157	3	14	-5	-13
158	5	17	12	2
157	4	23	40	6
158	5	17	111	12
157	5	19	144	21
158	6	24	-75	26
157	6	23	-133	15
158	3	17	11	-4
157	0	10	68	0
158	-2	14	166	2
158	3	18	66	-8
157	2	12	81	-6
157	5	18	82	-11
158	5	22	23	-21
158	0	18	-30	-5
158	1	17	-101	12
157	10	16	9	9
157	13	19	-25	4
158	6	23	-45	6
158	-2	26	-55	9
157	-1	26	-13	16
159	5	25	73	9
157	5	15	95	-1
157	8	15	102	-6
157	11	21	-57	-3
158	10	25	-119	-5
158	8	19	-72	-15
158	3	10	-33	-6
157	5	17	-31	-5
158	4	24	-52	-4
158	3	23	17	-11
158	1	14	44	4
158	3	12	52	4
157	5	9	124	-6
158	3	19	27	4
157	4	26	-127	-2
158	3	18	-83	-4
158	7	18	-27	10
157	5	10	49	14
158	7	7	42	12
158	5	11	-57	15
157	1	15	60	14
158	-1	12	112	12
157	-3	11	111	-1
157	5	14	177	-7
158	6	24	106	-7
159	4	19	25	-5
157	4	20	-49	-3
158	5	24	-114	0
157	4	15	-148	8
158	5	26	-163	11
157	1	27	-61	16
159	-3	25	-46	19
158	-4	17	-84	13
157	-1	11	112	-4
158	3	16	223	-9
157	11	21	41	-9
158	16	19	37	-15
157	14	15	102	-13
157	17	18	69	-21
157	15	18	86	-19
157	8	13	5	-8
157	5	15	-27	-10
158	3	17	-20	-9
158	5	19	-8	-2
158	3	21	16	8
158	2	21	17	20
158	6	23	6	28
157	8	24	2	21
158	7	19	34	12
158	7	19	-18	6
157	14	22	-117	-9
157	17	22	-151	-32
158	5	24	-81	-13
157	1	17	-16	13
158	4	10	42	13
158	1	17	44	13
158	1	19	56	13
157	1	18	91	0
157	3	22	23	-11
157	3	21	8	0
158	2	19	-20	3
157	3	19	-90	4
158	3	17	-44	1
158	-2	9	-66	2
158	0	13	-116	18
158	4	19	48	11
157	5	16	107	5
157	4	15	7	4
157	8	22	-14	-3
158	4	22	17	11
157	3	17	24	13
157	3	17	5	13
157	0	19	41	17
158	4	20	41	2
158	5	19	96	-9
157	-7	18	96	-9
158	-11	15	40	-16
158	-8	15	59	-15
158	-2	10	-28	-3
158	5	12	-59	-1
158	7	18	25	-1
157	12	15	48	-5
158	23	15	65	1
158	26	16	41	5
158	29	13	-59	3
158	22	17	-131	-6
157	12	23	-82	1
158	15	23	-25	0
157	16	22	44	-5
158	7	23	151	10
157	-2	26	168	10
158	1	27	74	14
157	-3	23	-43	13
157	-6	10	-33	9
157	-5	14	-54	4
157	0	27	-82	0
158	1	29	-18	8
158	-2	20	66	10
157	0	22	36	11
157	-3	17	5	6
158	-1	1	122	0
158	8	8	111	-11
158	12	17	-57	-14
158	10	17	-163	-14
157	7	14	-70	-22
158	-1	18	-37	-29
158	0	14	37	-27
157	3	19	99	-28
157	5	18	43	-32
157	3	22	42	-21
158	2	26	-33	-13
157	1	15	-50	-4
158	-1	20	-10	12
157	3	22	-53	17
157	9	20	-7	20
158	10	13	95	32
158	3	13	37	20
157	-3	17	18	14
158	1	22	-36	32
158	5	15	-83	30
158	7	17	-42	8
158	8	29	-18	1
158	11	23	-17	7
157	8	23	-84	16
158	9	19	-19	22
158	12	15	14	8
157	7	14	23	11
157	7	19	72	10
158	4	18	74	1
158	1	16	50	-2
157	4	19	10	-2
157	3	15	20	-5
157	1	17	12	-9
157	-12	14	37	-7
157	-24	13	54	-15
158	-19	14	66	-20
157	-13	16	37	-20
158	3	25	-5	-9
157	14	21	17	0
158	11	15	82	0
158	30	23	88	-9
158	55	28	-18	-7
157	54	19	-12	9
158	32	19	-55	10
157	19	22	-75	10
157	10	21	-65	22
158	7	18	-129	19
157	3	17	-18	14
157	1	25	36	12
158	3	24	4	13
158	-5	17	24	10
157	-4	14	3	4
157	-3	13	-14	-4
158	-5	12	-8	-13
157	-5	10	46	-17
158	-8	15	29	-32
157	-5	18	-48	-22
158	-1	18	-7	-9
158	4	9	33	-6
158	-3	14	-8	5
158	5	25	2	8
157	2	20	82	7
158	4	25	71	3
157	16	20	31	6
157	16	13	144	3
157	8	21	141	9
158	-3	21	38	11
157	3	12	80	-4
157	2	17	-84	-11
158	8	21	-129	2
157	5	14	-34	-1
158	-4	15	-24	9
158	1	20	64	10
157	-2	19	74	6
157	2	22	72	14
158	3	13	-39	6
158	10	13	-72	5
158	5	21	-39	-2
157	6	22	-95	-5
157	9	25	-98	-6
157	5	14	-95	2
158	12	15	-112	0
157	12	22	-59	6
158	6	13	75	18
158	3	13	121	19
158	4	13	69	24
157	3	8	51	16
157	3	17	52	10
157	5	26	10	-4
158	3	15	13	-19
158	-1	17	19	-18
158	3	24	-51	-7
157	5	17	27	-15
158	3	23	196	-16
158	8	17	252	-18
158	12	18	36	-17
158	25	34	-163	3
158	13	24	-60	10
157	5	18	-117	7
158	10	25	-208	11
158	8	24	-131	18
158	7	22	5	25
157	7	14	111	17
157	3	10	190	1
157	0	8	245	-4
158	-1	11	44	-12
157	-3	18	-48	-20
158	-3	20	-87	-22
158	-4	15	-54	-19
158	0	16	58	-15
158	3	16	-55	-18
158	2	16	-109	-22
158	9	25	-67	-18
157	13	26	-3	6
158	16	22	7	24
158	14	26	13	29
158	11	24	43	21
157	7	21	-44	16
157	3	18	19	19
158	-11	11	140	17
157	-20	15	164	23
158	-8	19	71	19
157	-4	21	-73	9
157	1	22	44	4
158	8	16	75	6
158	9	18	2	2
157	15	21	24	-7
158	9	17	118	-10
158	8	16	136	-20
158	12	15	-8	-19
158	14	13	-73	-21
158	16	14	-106	-6
158	16	13	-52	13
158	9	16	-3	15
158	22	21	-9	21
157	27	20	-14	20
157	17	26	-35	17
158	8	26	-44	11
157	-1	23	-58	9
158	7	26	-29	-4
158	18	24	-71	-23
157	17	19	-109	-17
157	6	15	-54	-12
158	-1	13	-15	-9
157	-8	11	44	-2
158	-9	9	98	7
157	-13	18	64	13
158	-30	24	2	6
157	-32	21	60	7
158	-11	21	37	13
157	-2	17	47	8
158	-8	14	68	8
158	1	15	-27	10
158	8	21	-122	19
157	11	22	-115	11
157	5	13	7	-17
158	-1	15	31	-30
158	2	19	95	-29
157	4	14	138	-29
158	10	17	88	-17
157	12	18	-60	6
158	10	15	-85	-2
158	3	10	98	-10
158	3	6	128	-6
157	5	18	120	-6
158	7	21	70	2
158	10	18	45	7
158	7	20	24	8
158	10	28	-51	11
157	20	26	-33	8
157	21	20	-69	11
158	12	23	-56	18
158	10	17	31	11
157	8	23	29	16
158	3	19	-27	14
157	5	15	-63	8
157	8	22	-122	13
158	9	18	-99	18
158	11	19	3	15
157	8	15	-22	16
158	5	9	50	16
158	8	13	121	2
158	4	15	59	-25
157	0	11	15	-35
157	0	16	-55	-27
157	0	22	43	-9
157	0	18	81	-3
157	8	22	-72	-9
157	14	24	-19	-1
157	13	21	42	14
157	3	13	106	17
157	1	8	154	4
157	-1	21	101	0
157	-3	22	56	3
157	-1	18	-121	9
158	4	22	-172	10
157	1	20	-15	14
158	5	22	24	13
157	9	22	-54	14
157	11	21	-47	27
158	7	16	31	19
158	-11	16	34	0
158	-18	16	37	-7
157	-17	12	24	-25
157	-13	15	-4	-32
158	3	15	-46	-28
158	13	22	-123	-19
157	23	26	-126	-8
158	31	21	-112	-12
158	38	21	-77	-8
159	32	14	52	3
158	24	14	202	0
157	16	14	229	6
158	12	17	174	14
157	11	22	116	13
158	3	12	19	5
157	0	10	-11	6
158	-2	18	-7	19
157	-2	20	16	12
158	-1	15	35	9
157	2	14	0	14
157	0	14	-34	9
157	-5	14	-49	-16
157	-7	22	-97	-33
157	-4	30	-121	-26
158	0	22	-17	-18
157	0	13	113	-17
158	-1	18	154	-12
157	1	23	20	18
158	7	15	-43	29
158	4	11	-25	25
158	5	17	-29	25
158	5	24	-18	19
157	-1	23	-54	8
158	3	18	-30	-6
158	8	22	69	-13
157	6	23	26	-24
157	3	18	-40	-23
158	10	22	25	-10
157	12	20	22	-2
158	4	15	19	-14
157	-1	17	-9	-9
157	-1	19	16	-4
158	1	20	-15	6
157	0	19	-67	18
158	-1	24	-19	27
158	0	18	10	18
158	5	16	137	15
158	8	19	80	3
157	11	15	72	-8
158	16	18	11	-9
159	11	21	-141	-6
157	2	19	-19	15
157	12	13	-31	22
158	23	16	-48	20
158	12	13	10	14
157	11	17	2	9
158	11	22	60	2
157	4	17	105	2
157	2	20	62	4
158	-13	17	69	-9
157	-18	17	122	-8
157	10	18	95	0
158	16	14	48	15
157	5	24	-14	11
157	7	26	-86	-3
158	-4	19	-128	0
157	-3	17	-110	-1
157	4	21	-86	4
158	4	24	-99	0
158	5	19	-80	3
158	-3	8	-23	-3
157	-1	10	61	-23
158	6	15	49	-16
157	12	15	-4	-5
157	16	19	-12	0
157	12	18	7	10
158	0	24	94	6
158	-20	22	155	16
158	-22	18	93	8
157	-9	21	-34	13
157	7	21	-78	19
158	20	21	-75	9
158	25	13	24	-1
158	30	12	102	-3
157	35	19	61	-9
159	32	22	138	-23
158	24	14	126	-19
158	12	19	89	-6
157	-21	25	23	7
157	-38	20	-81	0
158	-18	18	-66	-7
157	-9	17	-58	-12
158	8	14	-17	-28
158	20	13	5	-30
157	22	18	15	-9
158	31	12	-21	11
158	28	16	-57	17
157	22	23	-64	26
157	20	15	-64	19
158	15	13	-63	12
157	7	11	40	2
157	-2	11	186	2
158	4	17	18	11
158	2	15	-51	10
158	0	17	46	14
157	-6	17	1	11
158	-2	17	24	7
157	5	25	15	5
157	3	30	6	11
157	8	29	23	14
157	3	25	-15	15
158	-1	22	-75	0
159	-6	21	-92	-9
158	-4	17	-34	-6
158	-3	21	1	7
157	1	27	70	20
158	-2	23	64	2
158	-2	18	22	5
157	0	19	63	7
157	-2	14	102	-4
157	-1	8	102	-40
158	-7	11	11	-55
159	-3	15	-90	-33
157	0	11	-86	-41
158	-1	14	-88	-29
158	5	19	-67	-5
157	28	17	-58	11
157	60	14	-48	17
158	59	8	20	-3
157	29	16	40	-6
158	4	22	111	14
157	-15	22	71	16
157	-37	26	26	8
158	-63	19	71	12
157	-75	17	29	21
158	-39	17	4	22
157	8	23	32	20
157	12	18	59	8
158	2	17	12	-2
158	14	23	24	11
158	5	22	29	10
158	0	22	49	-2
157	6	15	36	-4
157	12	14	-22	-5
157	19	14	-20	-7
158	23	16	-109	-3
158	21	17	-96	9
158	14	18	-84	11
158	16	23	-50	11
157	7	14	26	4
158	-10	2	28	10
158	-31	-11	-50	35
157	-13	-7	-80	41
158	15	4	28	40
157	14	2	74	34
158	22	2	168	21
158	31	5	206	6
158	45	28	128	-2
157	54	42	1	-24
157	37	57	-41	-71
158	20	59	-8	-91
158	10	30	-1	-65
158	-1	27	85	-43
158	-11	46	77	-24
158	-7	57	2	1
158	-14	46	-26	3
157	-16	35	10	7
157	-8	52	2	19
158	-2	61	-52	25
158	3	46	-59	22
158	12	31	-59	14
158	15	22	-28	19
157	22	25	-6	14
158	33	14	4	14
157	29	-30	-23	18
158	14	-71	-30	22
159	4	-44	-3	25
157	-3	-16	43	13
157	-5	-30	56	2
158	-4	-14	-65	-3
158	5	0	-121	-14
157	14	11	15	-6
158	14	13	120	8
158	13	28	71	9
157	13	45	36	25
157	4	43	85	6
157	1	42	-11	-24
158	7	38	-256	-29
157	4	33	-244	-10
158	-9	22	-113	13
158	-13	12	53	7
157	-10	-1	215	6
158	-3	15	33	-2
158	1	22	25	-5
157	-3	23	92	-9
158	-8	25	30	-17
157	-3	24	22	-15
157	1	25	-59	-8
157	3	12	13	-2
158	1	6	110	5
157	1	-5	82	10
158	0	2	18	6
158	3	-6	-60	17
158	7	-3	-133	32
157	9	11	-62	19
157	3	22	-3	11
157	0	24	82	-1
158	3	26	164	-1
158	3	34	-8	-4
159	2	35	-82	-20
157	5	51	28	-23
158	16	39	109	-31
157	18	17	138	-23
157	20	40	108	-8
157	29	40	13	7
157	6	22	20	24
158	-8	17	3	22
157	-13	10	-27	13
158	-34	15	15	10
158	-20	14	23	2
157	-4	19	12	0
158	-30	19	-80	0
157	-17	19	-48	7
157	18	22	4	20
157	24	21	42	19
157	21	24	52	10
158	20	14	-38	16
158	18	11	-55	2
157	20	10	-16	-11
157	16	9	20	-9
158	16	13	-22	-17
157	16	14	-64	-10
158	17	9	-56	-9
158	12	4	-48	-3
158	14	14	-23	13
157	14	22	10	14
158	9	21	47	12
157	3	21	127	0
157	-3	14	113	-11
158	-2	7	-15	-10
158	8	19	-80	-1
158	9	24	-36	-9
157	8	18	38	-10
157	11	20	4	7
158	12	13	37	-4
157	4	11	83	-15
158	10	21	28	-2
158	13	16	56	1
157	7	13	-4	9
157	1	14	-48	13
157	-3	12	12	14
157	-7	17	5	13
158	-15	19	-65	10
158	-21	25	-72	11
158	-10	25	-39	8
157	0	25	-19	3
157	16	26	120	-1
158	19	19	129	-2
157	13	15	-51	8
158	18	21	-131	-6
158	19	15	-158	-21
157	16	15	-145	-9
158	20	22	26	-15
157	14	17	-9	-5
158	5	16	-22	8
157	1	7	137	10
157	-14	12	110	-1
158	-16	17	220	0
157	0	18	232	14
157	5	24	60	5
157	7	29	61	-2
157	3	29	31	-2
157	3	14	-16	23
158	7	10	-13	27
158	13	16	-37	26
157	14	22	5	21
158	11	19	-4	13
158	8	18	-43	-2
157	7	20	9	-29
157	3	14	-21	-29
158	2	6	-25	-42
158	0	5	81	-37
158	-3	14	52	-6
157	3	19	-53	11
158	7	20	-85	9
158	1	25	-81	6
158	-29	26	-61	7
157	-50	18	-12	4
157	-24	19	-10	2
158	3	24	-48	-1
157	21	26	-22	2
158	32	22	53	2
157	31	16	25	6
157	33	17	-3	6
158	28	17	99	-1
157	20	19	112	4
157	19	25	24	13
158	10	23	-75	21
158	-3	22	-121	17
158	-3	23	-46	14
157	1	15	-12	14
158	5	21	33	11
157	4	19	12	2
158	9	25	-13	-7
158	22	26	90	-6
157	15	15	149	-8
158	7	17	117	-2
158	5	13	-32	2
158	0	18	-51	-4
157	-6	19	35	7
158	-17	18	40	13
158	-33	17	94	11
157	-23	21	0	9
157	2	15	-162	7
157	4	16	-110	10
158	6	23	38	0
158	2	14	-41	-9
158	-1	7	12	-20
157	1	6	53	-22
157	1	10	-213	-19
157	3	19	-178	-13
158	5	29	-160	-13
159	5	24	-19	-5
157	3	17	224	-7
158	2	9	256	-8
157	13	7	291	5
158	17	16	178	-2
157	15	16	47	0
157	21	14	48	-1
157	32	22	8	2
158	27	21	3	6
158	13	17	2	2
158	7	21	-47	-2
158	-6	16	37	-4
158	-18	19	-14	9
158	-7	24	-25	22
158	1	21	19	21
157	5	19	-45	15
158	5	12	-14	18
157	6	10	-17	18
157	18	15	10	-1
158	20	17	35	-28
157	20	23	2	-13
157	22	29	-15	1
158	15	28	-45	4
157	12	21	-135	9
158	17	25	-121	7
157	10	26	-41	16
157	-4	25	-67	20
157	-6	25	-59	23
158	-2	24	-4	22
157	-1	19	54	27
157	-1	16	52	21
158	-2	15	89	15
157	-11	14	127	13
157	-11	15	37	9
157	-5	10	38	0
158	-4	9	31	-18
158	3	8	-27	-42
158	-4	11	-6	-39
157	-2	12	-33	-32
158	14	19	-64	-43
158	10	30	-127	-28
157	8	24	-74	-12
157	5	17	65	-3
157	4	17	84	4
158	5	13	142	4
158	12	14	224	7
158	20	20	191	15
158	21	5	-53	22
158	16	11	-165	18
158	12	21	-97	-1
157	-1	17	-59	-11
157	-6	27	28	3
157	0	24	188	15
158	1	24	207	10
158	-1	24	-117	-15
157	-4	14	-158	-15
157	1	20	-14	-7
158	4	25	-79	-1
158	7	17	44	-4
157	5	22	150	-18
158	2	18	68	-9
158	1	18	-2	7
157	-4	22	24	-1
158	1	23	-26	0
158	5	34	-24	16
158	6	25	39	8
158	1	14	-21	15
158	4	21	-23	24
158	11	22	-21	20
157	11	14	-9	4
158	12	13	-13	-6
158	10	12	-46	-1
157	0	9	-59	-8
157	-4	10	-61	-18
158	-5	9	-33	-11
159	0	18	12	14
157	20	19	71	5
158	22	14	38	-14
157	11	12	52	-7
158	7	15	69	7
157	1	21	15	21
158	-8	12	-27	28
158	-8	19	-7	32
158	-6	24	67	39
157	-5	24	1	27
157	8	22	-7	16
158	26	15	70	11
158	44	16	36	-3
157	45	17	19	-6
157	41	21	-44	-15
158	28	27	-132	-5
157	-6	21	-43	0
158	-41	23	-2	-1
157	-44	14	69	-8
157	-35	11	191	-25
157	-3	21	66	-16
158	24	9	-84	1
157	27	15	-90	8
157	41	23	-34	-1
158	25	18	50	-7
157	19	22	110	-3
158	18	19	0	-5
157	10	13	-140	0
158	-7	11	-83	0
157	-12	12	81	1
159	3	18	236	11
157	-6	18	167	12
157	-2	26	41	-13
157	0	29	22	-28
158	0	15	-89	-8
157	2	13	-200	0
158	3	12	-137	15
158	4	19	-73	4
157	-1	20	-77	-8
158	-12	15	7	-10
158	-30	14	77	-16
157	-25	11	79	0
158	-13	19	25	-1
158	-2	19	61	5
158	7	22	159	2
157	7	25	111	10
157	15	26	19	24
158	21	26	-25	32
157	26	21	-7	30
158	24	20	19	23
157	20	23	13	16
158	11	22	5	6
157	11	19	-27	-3
158	2	14	-56	-24
159	-6	11	-72	-29
157	5	15	-59	-27
158	-3	13	-35	-16
157	-1	16	-69	-4
158	9	13	8	4
158	12	13	56	11
158	26	19	-30	2
158	26	24	4	-1
158	23	30	85	1
157	17	28	139	6
158	12	13	221	7
157	2	10	152	3
157	-18	15	44	3
157	-42	14	-109	8
158	-36	18	-321	1
158	-6	24	-201	-1
157	12	29	-42	-1
158	17	29	19	5
157	9	21	100	19
157	5	17	72	15
157	10	18	72	4
158	10	25	58	-2
157	9	19	22	-6
158	5	17	34	-5
158	1	11	39	-9
157	1	10	-44	-10
159	3	10	-36	1
157	5	6	-18	-8
157	5	11	-111	-17
158	5	14	-130	-14
158	4	14	-143	-5
157	3	16	-58	6
157	8	19	110	9
157	10	21	334	10
158	11	24	310	15
157	13	24	70	18
158	7	13	-16	9
158	7	19	-129	17
158	8	25	-164	24
158	5	19	-82	20
157	3	13	69	23
158	1	11	53	17
157	2	19	-140	-11
157	1	21	-71	-26
157	3	13	104	-33
157	3	14	139	-32
158	1	18	103	-19
158	-18	19	78	-15
157	-43	22	31	-6
158	-7	30	-55	2
158	35	27	46	15
157	24	21	77	20
158	32	19	-37	16
158	33	13	-1	8
158	19	12	33	3
157	2	19	-34	-9
157	-33	23	-104	-16
158	-21	25	-71	-5
158	7	20	19	-11
157	-3	20	20	-1
158	14	26	22	5
157	40	19	110	7
157	35	11	86	3
158	29	19	17	16
157	26	22	1	19
157	14	15	30	6
157	9	11	24	4
158	16	7	-57	-11
158	15	16	-64	-17
157	4	19	-15	-3
157	7	14	-3	0
158	-3	15	-20	-5
158	-12	17	-36	-1
157	-1	21	-28	0
157	-2	23	20	9
157	-4	22	7	21
157	-8	17	-7	25
157	3	13	-56	18
157	12	14	-58	7
158	5	14	102	4
157	5	18	81	-7
158	3	25	0	0
157	5	25	-11	-2
158	-3	21	-86	-2
157	-27	21	-46	12
158	-33	25	22	0
157	-14	16	-31	-10
158	0	10	-9	-10
158	-3	18	135	-4
158	5	22	101	-4
157	6	19	-39	-2
157	8	19	7	3
157	8	22	43	4
157	6	21	69	6
157	14	11	38	18
157	17	6	-80	25
158	-7	13	-57	0
158	-9	13	46	-5
158	10	17	86	3
158	25	24	40	-4
157	24	16	-8	-6
158	19	14	-58	-8
158	26	21	-20	1
157	29	22	65	5
157	-1	4	37	-15
157	-32	-1	49	-10
157	-23	17	55	5
158	-19	22	-82	4
158	-16	14	-200	-9
157	-9	17	-256	-16
158	3	32	-238	-8
157	14	30	-89	-4
158	2	25	133	2
158	-38	30	232	3
158	-37	35	305	2
157	15	39	328	-7
158	25	36	21	-4
158	43	19	-19	-11
158	54	11	125	0
157	58	22	81	10
158	61	12	37	7
158	44	16	3	16
157	36	17	74	9
158	17	13	8	3
157	7	17	-56	3
158	-5	13	-35	0
157	-5	15	-44	0
158	-5	10	-86	2
157	-7	12	-160	-6
157	-4	17	-48	0
158	-8	17	2	12
158	-9	16	6	10
158	-11	15	32	16
157	-9	16	-7	21
158	-39	13	6	18
157	-45	7	10	10
158	-12	12	-3	-7
157	4	24	-29	-12
157	20	25	-54	8
158	32	20	-45	16
157	36	22	57	11
158	33	18	91	18
157	27	22	35	22
158	23	18	2	19
158	12	8	-91	0
157	0	18	-77	-34
157	-5	22	-29	-20
157	2	15	30	-16
157	-4	13	63	-19
157	-3	16	-47	-8
157	-3	17	-66	-19
158	-6	21	-37	-10
157	0	25	-44	-4
158	-1	22	-30	-1
158	-1	18	115	0
157	-7	16	210	-6
158	-6	17	65	-9
157	2	24	36	-4
158	8	25	146	4
158	14	25	52	7
157	13	27	-38	0
158	14	24	32	0
157	8	20	31	12
157	4	17	38	20
158	1	8	40	13
157	0	11	-106	7
157	3	17	-120	1
158	-6	13	44	-4
157	-18	8	34	3
158	-5	5	-4	-1
159	19	9	-1	0
157	38	13	-55	-4
157	38	19	-107	0
158	18	24	-102	7
157	11	24	-18	8
157	-14	22	20	15
157	-65	20	35	8
158	-89	18	14	0
157	-42	23	8	4
157	6	24	16	7
158	23	17	35	1
157	83	19	52	0
158	131	18	46	6
158	99	15	77	8
157	48	17	51	1
158	92	21	-7	-4
157	80	25	-24	-4
157	28	14	21	-8
158	-56	2	16	-5
157	-178	1	20	-2
158	-71	3	35	0
158	73	10	-1	5
158	39	0	2	7
158	-14	-4	1	14
157	-47	13	10	14
157	-78	24	-27	14
159	-42	28	-62	12
157	-29	30	-38	-3
158	32	46	19	-19
157	58	52	42	-23
157	13	52	16	-18
157	-13	42	21	0
158	-104	35	41	0
158	-107	38	58	-4
157	-2	15	31	1
157	33	14	21	-13
158	10	21	3	-1
158	33	24	-38	12
158	34	34	-16	2
158	12	26	20	0
157	-2	27	48	-1
158	-8	25	45	1
157	6	16	11	3
158	3	2	-20	5
158	17	1	-23	4
157	5	-1	-10	6
158	-38	-4	-16	7
158	-34	-3	-39	15
158	14	4	-49	22
158	34	13	0	6
157	84	19	3	9
157	103	19	0	13
158	89	16	16	-1
157	78	15	-5	-17
158	39	11	-41	-28
157	-5	13	-26	-37
158	-16	19	43	-27
158	18	14	60	-20
157	15	9	90	-13
158	4	14	81	2
158	10	24	21	15
158	9	32	-3	28
157	8	24	5	12
157	-21	14	19	2
157	-67	12	17	4
158	-81	-3	-2	7
157	-39	-7	-26	13
158	-7	11	4	21
157	26	31	20	22
157	55	27	9	7
157	71	10	-31	3
158	69	23	-49	-2
158	52	23	-17	2
157	27	10	49	9
157	-4	22	117	11
158	2	26	120	6
157	-3	25	60	-4
157	-26	19	-17	-1
159	-32	21	-46	-10
157	-22	24	-62	-6
157	-4	29	-24	-7
158	-9	35	-33	-7
157	-3	32	-65	2
158	-7	31	-53	2
158	-14	23	-24	5
158	-16	20	14	9
157	-24	19	-3	-3
157	-17	6	41	-7
158	-7	-13	51	9
158	4	-15	28	3
158	10	3	30	-3
157	13	14	22	4
157	15	20	-18	-2
158	11	30	-85	-4
158	1	33	-46	0
158	-7	34	6	4
158	9	38	69	8
158	49	28	111	11
157	88	3	80	12
157	75	1	65	3
157	53	12	-30	19
157	22	15	-84	22
157	-29	18	23	1
157	-109	12	54	-3
157	-166	19	-11	-17
158	-55	36	-40	-31
157	55	33	-6	-41
158	22	3	40	-34
158	3	-30	69	-22
157	-50	-30	33	-9
157	-90	-37	-6	2
158	-24	-46	58	6
158	5	-43	-11	18
158	44	-24	-80	22
157	62	-22	12	19
157	62	-25	9	26
158	87	-2	-22	22
158	67	-1	-12	16
157	54	5	-46	11
158	37	16	-39	-2
158	8	49	6	0
158	9	60	52	3
158	7	63	46	-7
157	-11	76	57	-11
157	-12	67	74	2
157	1	71	-42	10
158	2	58	-118	8
158	3	56	-89	6
158	-8	47	-75	5
158	-4	44	-6	4
157	-11	43	133	-2
157	-32	44	127	3
157	-51	52	63	8
158	-48	42	65	1
158	-1	38	-12	1
158	9	38	-58	-4
157	24	36	-81	-14
157	65	27	-24	-25
158	84	22	110	-17
157	79	22	89	-5
158	45	11	22	-4
158	20	7	-1	16
158	3	11	-37	18
157	16	14	-38	10
157	82	20	-19	4
157	89	26	-4	1
158	40	32	18	5
158	33	32	2	6
158	-11	8	1	3
157	-64	-3	21	-6
157	-195	15	64	-3
157	-242	17	108	-1
157	-65	22	38	-5
158	-3	25	-22	4
157	-32	32	19	-4
157	-18	54	0	-2
157	27	67	-15	6
158	93	64	-1	4
158	88	50	-39	10
157	61	38	-15	14
157	-28	5	4	4
158	-79	-17	38	-13
157	-127	-49	7	4
157	-97	-67	-62	7
158	87	-24	-12	-2
157	72	3	16	-10
157	67	5	10	-4
158	78	4	-9	2
158	26	10	13	-5
158	34	19	27	-4
157	-5	25	17	-8
158	4	26	-11	-4
158	14	29	-60	-1
158	22	38	-20	-3
158	8	38	35	9
158	-13	11	15	19
157	1	-3	-15	13
157	14	3	40	3
157	30	-13	50	-1
158	33	-23	-14	6
158	31	10	-25	4
158	29	23	1	-1
157	23	19	-2	-2
157	2	35	10	3
157	-30	28	19	5
157	-57	18	7	-4
157	-24	31	15	-10
157	0	45	35	-10
158	30	38	85	-3
157	135	25	51	0
157	147	13	-39	2
158	112	12	-75	2
157	81	19	0	0
157	-2	28	58	7
157	-96	31	67	4
158	-209	28	64	4
157	-155	31	-9	8
158	-1	37	16	0
158	-24	31	1	-4
158	-17	16	-33	-10
158	-7	14	7	-2
157	-20	9	15	13
157	2	17	40	18
157	-18	18	35	12
157	-6	8	-6	-7
157	-6	17	-53	4
157	10	9	-42	24
158	19	11	-17	19
158	9	19	-58	5
158	13	19	-23	-12
157	30	12	33	-27
158	44	0	15	-21
157	19	10	19	-7
158	-23	19	-7	-4
157	-9	21	-12	0
158	10	24	16	3
158	19	39	19	5
158	116	11	41	7
158	150	-1	6	10
157	150	44	-88	11
158	99	4	-105	9
158	40	-24	-52	9
158	3	1	-7	7
157	-91	15	63	7
157	-154	15	103	0
157	-124	17	145	-10
158	20	25	129	-14
157	-39	37	47	-9
158	-78	57	30	2
158	-15	44	9	0
157	-42	32	2	-4
158	7	14	25	-6
158	-12	-2	21	-10
157	17	-32	-6	-2
158	59	-89	-3	3
158	46	-68	-16	10
158	42	17	-14	14
158	-17	27	8	19
157	-27	38	-6	19
158	23	54	-32	10
157	33	21	-47	8
158	12	47	-11	1
158	3	45	6	-9
158	-7	16	-2	-4
158	-6	15	-16	-1
157	18	19	-37	2
157	51	25	-15	2
158	82	17	1	-5
158	65	21	5	-11
158	124	41	38	-8
157	157	43	56	-1
157	34	31	65	-6
158	-34	22	29	8
158	-172	5	-26	13
157	-204	2	-9	10
158	-128	15	18	8
157	-160	6	-5	-5
158	-17	9	-17	-16
158	1	3	59	2
157	-30	-4	108	16
159	-4	-11	19	-6
158	-15	-25	-96	2
157	37	29	-64	-1
158	23	134	51	-5
158	16	100	46	4
157	-20	-31	50	6
158	0	48	13	2
158	61	67	-52	8
158	60	28	-2	4
157	98	40	21	-2
158	141	8	4	-6
158	138	34	-5	-17
157	100	24	-25	-4
157	63	19	-47	-6
158	-12	15	-42	5
157	-103	45	-5	11
157	-143	44	-3	7
157	-72	2	-25	3
158	-51	8	0	6
157	-73	-11	10	7
158	-30	-53	62	-5
157	-34	-56	83	-1
158	-5	3	54	2
157	7	-13	42	9
158	28	-25	-4	8
158	69	-4	-5	-6
158	99	-18	5	-6
158	127	-23	-8	6
157	75	-67	-8	6
157	52	39	41	9
158	50	189	59	7
158	86	119	6	10
157	75	31	-18	4
158	14	31	-22	-4
158	27	-2	-12	-5
158	-38	-5	-27	4
157	-43	15	-1	5
158	22	13	17	-1
158	50	31	0	7
158	32	35	54	7
157	-49	44	61	-5
158	-94	53	6	-11
159	-209	64	-6	-11
157	-209	61	6	-19
158	-19	47	5	-12
158	23	34	8	-8
157	-16	32	2	2
158	-32	35	-19	8
157	-68	0	-19	12
158	-22	-80	-11	16
157	33	-79	-6	11
157	43	0	0	16
158	60	-12	14	15
157	92	-9	38	10
158	132	17	51	1
158	100	11	34	-3
158	48	9	31	-11
157	-39	-44	35	2
157	-91	-62	10	10
157	-128	-6	19	-1
158	-166	50	44	-2
157	-51	67	22	0
157	14	75	-39	4
158	96	59	-49	-8
158	64	15	10	-9
158	41	-5	-31	7
157	157	-7	-65	0
158	102	21	-2	-6
158	90	95	21	5
157	40	92	40	2
157	7	60	-24	0
157	8	87	-83	2
158	-35	26	-5	-5
158	-33	24	15	-5
157	-19	30	7	5
158	0	17	23	11
157	-6	19	11	3
157	-26	7	7	-1
158	-77	27	-4	3
158	-31	20	11	-2
158	87	0	29	-1
158	106	-18	1	-1
158	70	-15	3	6
157	55	-4	17	9
157	47	2	21	4
157	20	-3	26	2
157	-89	-17	1	-6
157	-48	-10	-7	-12
157	67	0	16	-11
158	-50	-32	25	2
157	-88	-43	21	10
158	-102	-26	16	10
157	-18	36	12	1
158	15	76	16	-3
157	-100	61	5	7
158	-117	80	-41	-1
158	-70	82	-30	2
158	57	84	20	-1
158	37	50	38	-1
157	68	-6	59	-4
158	99	-11	50	-5
157	105	-16	39	1
158	89	-7	8	-8
157	-8	31	10	-6
158	46	38	42	3
158	25	45	15	15
157	-3	19	49	14
158	-41	-39	91	-2
158	-94	-1	70	-1
158	48	40	7	1
157	67	2	-66	-11
158	-2	4	-77	2
157	12	0	-50	5
158	-17	6	-32	-7
157	5	18	-13	-1
158	1	5	-4	-7
158	-12	26	-30	0
158	-17	34	-23	6
158	-44	53	3	0
157	-45	55	2	6
157	-32	48	0	8
158	21	40	7	14
157	38	22	47	11
157	27	21	71	6
158	24	5	52	2
158	31	13	-71	7
157	31	30	-92	3
157	33	9	43	-5
158	58	-12	18	0
157	86	-22	5	1
157	122	19	-4	3
158	102	37	-17	8
157	98	-1	14	10
157	63	40	2	7
157	-41	56	23	4
157	-128	87	5	-2
158	-216	116	-11	4
157	-146	71	-22	10
158	-95	36	-17	-6
157	-53	-62	-19	-16
157	-33	-170	8	-12
158	-72	-100	66	-6
158	-11	3	66	-2
157	-23	-21	25	0
158	32	1	-2	2
157	46	-11	19	-1
157	52	-56	35	-6
158	99	-39	42	0
158	104	25	20	6
158	103	59	12	12
158	66	42	0	7
158	56	100	-15	-4
158	-13	98	13	-3
157	-92	48	55	-3
158	-95	58	109	-2
157	-47	7	67	-2
157	-62	-48	1	4
158	-14	39	-21	11
158	19	103	-62	1
157	29	40	-82	3
158	87	25	-53	15
157	63	42	-33	14
158	57	38	-24	15
157	20	22	2	9
157	17	12	48	5
157	1	11	78	-4
158	23	11	27	-10
157	39	17	7	-2
158	-37	15	29	-9
158	-128	29	31	-7
157	-180	13	9	7
157	-96	21	-51	9
158	-23	41	-34	-7
158	93	37	9	-17
157	148	24	-2	-11
157	175	0	-21	-2
158	198	-19	-16	-5
158	106	-9	20	-6
157	-21	8	63	3
158	-126	-3	47	-6
157	-41	-8	-4	0
158	-13	17	-8	8
158	-47	12	-16	9
157	-12	15	-40	12
157	-16	-3	4	13
157	42	-57	59	-3
157	38	-83	-14	-1
158	-2	-18	-72	9
158	30	133	45	-5
158	-19	131	85	-4
157	-86	45	7	10
158	-40	43	2	14
157	82	46	27	8
158	73	106	11	8
158	10	96	4	3
157	15	-7	2	-8
158	-52	1	-16	-10
157	-93	-10	-13	-11
157	-79	-38	-8	-15
157	16	7	-3	0
157	15	44	4	11
157	-13	48	17	4
158	17	27	21	17
158	-5	17	22	14
158	36	1	35	4
158	-10	11	4	-4
158	-55	26	-30	-3
157	-13	-39	-7	5
157	17	-60	-7	2
157	44	99	-30	1
158	93	104	-4	4
157	106	44	23	4
157	97	32	25	8
157	88	-43	28	4
157	68	-32	35	-5
157	25	-65	11	-2
158	-39	-35	12	4
158	-10	13	6	11
158	-13	-47	-12	7
157	-64	-54	9	4
158	-108	-53	27	4
158	-129	-48	39	3
158	-49	82	5	0
158	-75	149	-16	4
157	-62	106	32	-1
158	20	109	79	-1
158	35	110	84	9
158	128	107	13	6
158	105	73	-27	2
157	95	-17	-4	-4
158	59	-124	-13	-6
157	-5	-92	-4	-9
157	15	5	-6	-17
157	-12	-5	-17	-19
158	17	-3	-34	-1
158	10	15	-33	-6
158	2	29	-9	-11
157	1	43	-29	1
158	-17	33	-37	-4
159	-35	20	-47	4
158	-35	26	-48	0
158	5	27	-54	4
158	51	22	-42	7
158	88	26	15	16
158	30	24	117	23
157	20	16	245	7
157	-30	8	144	-4
157	-92	20	-25	-9
157	-29	21	-10	3
158	42	24	-16	0
158	10	30	-3	11
157	-52	22	40	11
157	-39	14	-4	9
157	-129	-13	15	1
158	-98	-9	48	-11
157	2	17	22	-5
158	-15	29	-4	2
157	52	34	-13	6
158	85	26	8	-1
158	56	29	-4	-2
157	56	56	-13	0
158	60	51	-4	9
157	64	48	8	6
157	27	39	-4	4
157	10	37	-15	1
158	1	27	-13	-8
157	-21	13	-22	-6
157	-62	29	-1	0
158	-86	33	5	6
158	7	48	9	4
158	92	40	2	7
158	75	17	-24	4
158	65	17	16	-4
158	80	18	21	-10
158	23	-16	-66	-8
158	-50	-72	-33	1
157	-66	-67	51	1
158	0	-52	26	12
157	16	15	44	25
157	7	45	54	19
157	19	-7	16	14
158	-37	-6	-25	10
158	-5	-15	-77	-13
158	7	24	-27	-21
157	-7	41	49	-6
158	-5	8	101	-2
157	-59	-42	68	4
158	-86	7	-35	-1
158	8	60	-29	-9
158	64	75	-12	-5
157	37	102	-24	-4
158	37	52	0	0
158	-47	43	0	0
158	-72	50	-7	-1
158	5	59	6	-2
156	89	21	14	1
158	84	-15	15	7
157	20	-63	10	7
158	41	-93	10	10
157	81	25	28	5
158	49	122	9	-1
157	-22	56	-39	-4
158	-22	22	-19	-9
157	-31	30	8	-16
158	-29	-40	-6	-9
157	-21	-22	21	-13
158	22	10	37	-15
158	63	34	49	-3
158	-23	33	54	3
157	-77	-5	43	13
157	-31	13	50	18
157	-19	-22	25	14
158	-78	-8	8	8
158	-42	22	6	10
158	48	-6	-7	13
157	48	6	-8	14
157	45	34	-5	20
158	39	50	-6	5
157	23	79	-7	-1
158	9	72	-14	4
157	23	49	-24	1
157	30	54	-20	-7
158	8	38	-1	-7
158	13	26	19	-3
157	41	13	22	2
158	66	-8	45	4
157	43	-19	91	5
157	29	8	49	2
158	30	40	1	4
157	-49	34	40	2
158	-140	44	39	-8
158	-123	48	-9	-3
158	-26	38	-34	-3
158	-3	-10	-33	3
158	-10	-15	-17	8
157	12	9	-7	10
158	4	-8	12	10
157	21	14	-21	4
158	14	0	-22	2
158	14	-4	-7	-6
157	19	-3	-20	-5
158	12	-6	-7	7
158	14	25	4	21
157	-23	36	16	11
158	-105	3	-33	3
158	-117	-2	-72	6
157	-62	23	-11	-7
157	-56	10	24	-5
157	53	21	48	-3
158	126	13	80	-2
158	191	24	33	-5
157	220	43	-16	-10
157	120	36	-42	-4
158	117	19	-49	-11
158	11	5	-36	-22
158	-87	-4	-23	-14
158	-56	-3	10	-4
158	26	9	41	-8
158	54	16	70	-1
158	2	33	79	-4
157	33	25	15	-4
158	-12	22	-21	0
158	-38	31	0	13
158	-34	21	27	15
158	-48	17	40	10
158	-77	11	35	7
157	-117	24	31	3
157	-54	52	41	0
157	38	46	21	0
157	54	16	12	11
157	44	-24	9	14
157	106	-45	13	14
157	84	-37	29	7
157	-13	2	20	-1
157	-82	50	20	-7
157	10	54	-7	-9
157	23	73	-18	1
157	-53	59	2	4
158	-10	45	9	6
158	-20	75	15	10
158	41	59	6	8
158	56	35	-10	7
157	32	-42	-9	-2
158	17	-72	37	3
157	-47	24	37	-2
157	-101	25	-73	-2
158	-119	0	-117	4
158	-15	-4	-15	1
158	12	-38	-2	4
157	-1	-48	5	-1
158	0	0	34	-1
157	-22	107	-15	-1
158	-1	62	-9	4
158	-23	28	31	3
158	-5	58	72	1
157	-25	29	33	14
157	-60	24	-5	16
157	-23	59	0	7
158	-72	87	-12	-5
157	-16	84	6	-7
158	152	90	26	-1
157	174	46	42	2
157	226	-86	44	3
157	240	-145	42	-1
158	118	-36	14	0
158	44	-42	15	14
157	42	-88	60	10
157	8	15	63	-1
158	-152	130	18	-3
158	-115	93	-28	-10
157	17	16	-36	-14
157	64	48	-20	-21
157	48	43	-1	-22
158	-6	34	-2	-10
158	-12	-18	-30	5
157	-85	-24	20	0
157	-149	-16	65	-3
157	-130	-3	-26	3
157	-54	22	-57	2
158	-79	5	-23	3
158	-43	29	-3	-3
157	23	8	7	1
157	16	16	-7	10
157	64	4	-12	11
157	81	2	-45	11
157	103	22	-36	7
157	45	8	0	-15
157	-11	8	36	-17
157	-59	49	65	-1
158	-101	118	53	1
158	-61	61	27	16
158	30	-5	8	14
158	69	18	10	1
157	55	15	-18	-3
157	74	30	-30	-3
158	69	33	-8	4
158	60	23	-10	7
158	-1	21	-17	13
157	-61	11	-10	9
158	-69	-2	1	-3
158	-63	-24	15	-9
157	-22	-20	28	-10
158	19	-14	21	-9
157	49	2	15	-1
157	65	17	31	0
157	110	18	58	2
158	103	45	69	10
158	69	75	40	10
157	72	63	38	0
158	29	44	43	2
158	-32	40	32	10
158	-50	19	40	4
157	-30	42	41	7
157	-66	32	2	2
158	-97	21	-33	-2
158	-87	-33	-24	4
157	-53	-80	18	10
157	0	9	10	7
158	-11	22	-68	15
157	-82	4	-87	15
158	-154	24	-21	3
158	-37	13	-16	2
158	92	21	-12	-4
158	145	17	5	-7
158	161	25	0	-2
157	175	29	6	-3
158	192	18	-15	7
158	51	12	-11	8
158	-109	15	-12	2
157	-136	14	-3	-3
157	-44	-1	17	-5
158	-67	-30	0	0
157	-85	-57	20	0
158	-4	46	61	4
157	42	134	66	-1
158	63	70	32	-2
158	69	65	58	6
157	65	75	59	1
157	0	29	6	-4
158	-29	30	-8	8
157	5	16	28	-3
158	-17	8	69	-8
158	-75	5	26	2
158	-35	1	0	-3
158	-34	12	-40	2
157	-67	35	-54	0
157	8	44	-11	3
158	55	-69	-27	14
158	53	-167	-20	14
159	57	-31	-9	4
158	66	33	2	-12
158	56	-11	36	-10
158	16	43	54	-12
158	-12	29	8	-9
158	-68	11	-60	10
157	-86	-12	-22	5
158	-40	15	8	-4
158	-8	62	-7	4
157	17	74	16	4
157	57	125	29	4
158	107	127	20	4
157	154	75	-5	1
158	127	37	-7	-12
157	113	23	6	0
157	107	-27	-9	10
158	-29	-7	-37	9
158	-85	10	-44	13
157	-9	14	-20	-1
157	-57	-5	-12	-2
157	-194	-13	13	-9
157	-237	-8	50	-6
157	-143	-48	59	0
158	-50	7	60	3
157	5	15	47	5
157	43	7	66	1
158	55	7	72	-1
158	63	2	5	-7
158	81	0	-28	-8
158	132	-34	-15	-2
158	113	19	-10	9
158	42	113	-21	6
157	-42	86	-18	11
158	-151	11	21	11
157	-104	9	45	4
157	17	16	43	-4
157	60	12	17	-13
157	59	-4	0	-4
157	124	19	1	0
157	100	39	-18	4
157	-13	49	-11	3
158	0	51	2	-2
157	20	34	11	-1
157	-36	35	23	2
158	-50	-15	18	2
158	-35	-85	19	3
157	-45	-50	17	4
158	-12	69	3	2
157	-32	27	-10	2
158	18	26	-9	1
157	117	46	13	0
158	102	5	43	1
158	51	12	49	4
158	14	-52	4	-4
158	-29	-54	-38	0
158	-92	-14	-44	0
157	-84	82	-35	2
158	-18	158	5	7
157	-17	137	56	5
157	-70	81	50	7
158	-77	69	-66	10
158	-55	-19	-68	2
157	38	-89	26	-4
158	86	45	0	11
158	53	36	3	6
157	83	-9	-3	2
158	78	-9	-14	-12
157	-28	-3	17	-21
157	-144	30	23	-6
157	-118	14	52	2
157	6	26	38	13
158	21	6	9	1
158	53	7	-7	4
157	105	3	-28	13
157	138	-10	-52	14
158	150	-15	-21	11
157	67	15	16	-2
158	17	62	8	-13
157	-28	19	27	-12
157	-39	22	6	0
157	-46	36	1	6
157	-70	22	13	2
157	-12	16	10	7
157	13	10	19	9
157	27	15	4	2
157	15	11	15	-4
157	-51	19	17	-1
158	-44	18	21	0
157	6	19	10	-4
159	-1	31	-4	2
157	-5	32	20	1
157	59	33	33	2
158	178	46	26	6
158	209	48	19	9
158	97	-3	5	7
157	58	-48	-58	13
157	-21	-6	-48	-1
159	-206	15	6	-7
157	-235	19	12	2
158	-47	12	14	4
158	-18	26	-9	9
157	-93	56	23	-1
158	6	-72	79	-10
157	46	-149	83	-17
158	62	-34	90	-15
158	31	107	64	-9
158	3	87	30	3
158	-2	56	4	9
158	-39	73	5	1
157	3	29	14	0
157	5	40	-21	6
158	-38	50	-17	8
158	-68	28	16	1
158	-73	37	9	2
158	-3	61	-21	-4
157	33	46	-2	-5
158	45	6	15	4
157	80	-42	-1	-5
158	80	-86	-13	-4
158	67	-51	-31	1
157	-40	81	-15	8
158	-135	94	-18	11
158	-97	77	-16	9
159	-33	72	-1	4
157	-15	-13	6	6
157	-1	-43	17	8
158	94	-28	10	4
158	200	56	1	9
158	182	49	-4	8
158	152	49	24	-2
158	75	76	59	-8
158	55	7	17	-3
157	179	-56	-75	7
158	112	-19	-40	-2
158	-22	27	17	-4
157	-10	-25	5	-9
157	-36	23	31	-15
157	-184	-3	39	-8
157	-196	0	22	-1
158	-16	33	-37	14
158	-14	26	-67	11
158	-50	28	-52	10
157	-7	-9	-16	7
157	-35	18	35	2
157	21	25	56	9
157	-11	28	49	10
157	-88	22	21	-1
157	-96	37	34	-8
158	-15	60	54	4
157	33	25	64	-2
158	-28	-55	51	-4
158	-5	-47	1	-8
157	-19	25	8	-16
157	1	55	24	-9
157	7	41	2	3
158	14	24	-16	3
158	35	49	-29	2
158	25	31	-57	12
157	38	31	-38	12
157	33	23	2	16
157	33	15	18	14
158	8	15	-11	7
157	-2	11	-39	13
157	-5	11	29	-6
158	5	5	73	-25
157	29	18	53	-10
158	32	22	37	-8
157	27	31	65	-11
158	4	28	21	0
158	-37	20	-20	-3
158	-90	19	-17	3
158	-127	17	-9	6
158	-117	14	15	7
158	-4	19	-13	15
157	66	20	2	15
158	70	18	18	14
158	106	34	1	-5
157	166	21	-26	-12
157	135	0	-30	-7
157	54	-57	-8	0
157	84	-67	-11	4
158	85	30	0	3
158	98	74	-12	3
157	149	99	-15	3
158	73	63	-3	4
157	-12	-87	10	8
159	-7	-12	25	4
157	-35	94	21	-4
157	-117	-7	43	-6
159	-86	80	56	-4
159	-65	75	57	0
157	-150	-56	66	1
158	-152	-10	12	7
157	-126	91	-73	16
158	-45	118	-21	6
157	-47	-20	16	0
158	-31	-10	-9	-2
158	24	19	39	-8
157	12	-35	38	-5
157	-3	-129	34	0
158	-38	-72	-19	6
157	19	46	-43	0
157	38	6	-3	-5
158	53	56	1	-2
158	57	38	8	0
157	61	62	11	6
157	89	51	10	7
158	80	31	3	13
157	58	46	0	8
158	-32	11	-15	5
158	-119	21	-10	-6
157	-85	17	1	-6
158	-50	23	9	1
157	-80	11	40	-6
158	41	19	42	0
157	169	12	15	-2
158	283	15	13	1
158	290	18	27	2
158	184	15	3	-2
158	97	23	-19	0
157	-49	28	-21	4
157	-190	31	14	8
158	-276	-1	8	5
158	-70	-24	-22	-2
158	22	-26	-3	-4
158	-60	6	4	-4
158	-88	44	6	-6
158	-146	29	2	-3
158	-32	24	29	3
158	8	54	40	10
158	-18	46	44	16
157	0	54	51	8
157	-12	42	21	-9
158	9	-2	-4	-6
158	25	27	-19	9
157	43	38	34	9
158	64	15	48	6
158	65	14	-54	12
157	47	25	-87	15
158	40	12	-21	1
157	23	14	-8	-13
158	19	35	-13	-6
157	2	-4	4	2
158	-28	-39	-9	-2
158	-27	-50	-14	2
158	-21	-11	-16	9
157	-22	87	-2	6
157	-33	87	3	10
158	-15	17	-2	11
158	19	29	21	6
157	24	29	61	1
157	25	7	61	6
158	11	4	16	4
158	-30	-11	45	-9
157	-42	1	35	-7
157	4	23	-3	0
157	39	27	15	-2
157	50	16	10	0
158	56	16	5	-2
158	45	45	1	-2
157	68	34	-4	-5
158	127	44	-8	-11
157	126	73	17	-7
157	18	-18	51	-1
158	-68	-53	24	9
158	-95	62	0	12
158	-95	73	15	11
157	-116	63	61	7
158	-83	119	55	-1
157	116	5	-60	-1
157	169	-49	-107	-1
158	145	-82	17	-1
157	105	-105	48	0
157	-13	-6	20	6
157	-52	-19	33	0
158	-100	-12	-47	-9
157	-99	11	-66	-13
158	-77	21	7	-8
157	-87	52	23	-1
157	-44	57	-1	-6
158	-32	63	-1	-10
157	-9	17	15	-10
158	8	-6	8	0
158	20	9	4	8
158	54	-2	9	10
157	68	-4	17	10
157	44	3	31	0
157	9	4	33	-5
157	-5	34	10	-2
157	-48	28	-10	1
158	-28	-12	-16	8
159	29	14	-20	15
157	29	-6	-10	19
158	-8	-32	36	24
157	-48	-33	48	9
158	-22	-47	21	16
157	95	50	-29	10
158	162	173	-39	-11
157	132	130	26	-4
158	128	102	38	-7
158	93	107	22	-9
157	21	42	-6	-7
158	-123	43	-19	-1
157	-175	31	-3	7
158	-88	22	-19	2
157	-120	32	-26	7
158	-212	-6	-9	13
157	-101	-8	17	9
158	130	3	-2	3
158	78	10	2	1
157	51	16	20	-3
158	110	15	36	0
158	118	64	30	2
158	85	86	16	1
157	27	3	48	10
157	-19	-39	50	4
157	-47	-20	42	-1
157	17	-30	18	-9
157	-3	-5	-3	-9
158	-9	16	-1	-2
157	-15	11	5	0
157	-24	-2	13	-2
158	-21	-76	10	-1
158	-14	-17	3	3
158	8	52	-2	-2
157	-3	-3	-2	1
158	7	22	5	3
158	-33	40	20	-1
158	-41	32	35	2
158	-13	32	16	7
158	5	29	3	1
158	34	34	14	2
157	58	36	21	7
157	32	43	7	-1
157	10	5	-30	2
157	1	14	-1	2
157	-122	-3	9	-4
158	-122	-97	-38	-13
158	20	-28	-22	-8
158	85	55	29	-6
158	144	-6	8	-5
158	160	11	-24	5
158	82	32	12	4
157	24	13	39	5
158	46	38	25	-11
157	42	41	-65	-5
158	-47	39	-73	9
158	-35	45	-1	2
158	3	53	-32	7
157	37	47	-17	-2
158	55	37	5	1
158	1	19	17	4
157	7	6	40	-1
159	-25	1	38	1
158	-82	12	33	-3
158	-170	29	26	-1
157	-158	36	45	-3
158	-14	56	59	-4
158	-4	42	69	6
158	-6	8	19	22
157	32	8	-33	25
158	80	11	-27	21
158	65	-25	-8	10
158	18	-6	6	-5
158	-31	40	2	-3
158	-52	30	-1	-6
158	42	-16	1	-5
158	58	-49	24	-1
158	45	44	35	-3
158	16	77	49	-2
158	-3	59	38	-13
157	-38	79	6	-17
158	-40	7	-8	4
157	3	-24	-10	9
157	-15	19	-4	7
158	8	18	2	9
157	17	10	5	8
158	31	11	8	7
157	36	4	13	3
158	41	24	-3	5
157	55	22	-13	5
158	27	5	-2	5
158	16	-18	-4	-2
157	10	-22	-19	-1
158	18	6	-5	-5
158	88	30	24	-12
157	106	60	25	-7
158	25	79	10	-5
157	-7	46	-43	8
158	-34	32	-18	9
158	-113	61	13	3
158	-172	-11	-4	3
159	-80	5	21	7
157	-22	52	26	13
158	-52	41	52	9
158	36	56	58	2
158	22	11	21	2
157	16	-98	-37	0
157	25	-96	-58	-10
157	74	28	-35	-10
158	26	8	-35	-6
158	-44	-3	-4	-6
157	-11	13	-9	-4
158	-100	24	0	-1
158	-121	32	42	5
158	-36	30	42	14
158	82	56	46	7
157	59	18	28	-1
158	126	-24	23	-3
158	236	-67	18	-3
157	181	-30	-1	-3
157	94	42	27	0
158	22	83	64	4
158	-15	84	17	2
158	-25	77	-81	10
158	7	70	-47	6
157	-35	21	5	-2
157	-37	-4	1	-3
157	-37	-34	75	3
158	-57	-11	86	15
157	-4	9	52	15
157	15	11	37	10
158	-18	-16	0	0
157	-73	-33	1	-5
158	-54	69	-37	1
157	6	149	-88	0
158	22	134	-50	-9
158	25	82	8	-8
157	39	-6	10	-1
158	-33	-58	24	6
158	-126	-10	17	-2
157	-116	16	3	-11
157	-24	-5	16	-9
158	16	-22	25	-2
158	-16	-6	35	2
157	17	-11	21	4
158	71	-18	4	8
157	73	3	-4	5
158	20	9	-5	7
157	12	-5	-3	7
157	80	-4	5	6
157	86	8	-4	-1
158	38	9	-18	-11
158	-3	3	-1	-9
157	-37	25	29	-3
157	-30	113	42	6
158	-104	99	23	10
158	-113	42	32	9
157	-29	56	43	2
158	20	15	33	7
157	59	-29	23	9
158	39	55	-2	11
157	90	90	-22	4
157	150	52	-49	-10
158	103	89	-52	0
158	35	55	-25	3
158	3	2	-7	-7
157	37	-123	-5	-5
157	40	-112	-2	-1
158	-18	11	-7	-2
158	-5	-1	-8	6
157	1	27	43	4
157	-27	9	74	-1
158	-41	-5	-6	10
157	-21	-10	-72	3
157	-20	-18	2	1
158	-37	57	5	6
157	-41	94	-18	-2
158	-64	27	-21	-1
158	-45	-22	-43	-1
158	-38	-45	37	0
157	-3	-59	64	0
157	31	-19	84	6
157	33	-7	35	12
157	31	28	-22	7
157	22	90	35	11
158	79	63	17	11
157	106	55	22	-10
157	48	66	69	-15
157	9	44	65	-6
158	27	39	31	-11
157	-47	21	-61	7
159	-186	2	-78	17
157	-168	29	31	0
158	-59	82	40	3
158	-116	92	31	-2
157	-94	4	33	-4
157	72	-57	9	0
157	103	-41	-1	-3
158	122	-33	-24	-1
158	96	65	15	-4
157	63	42	13	-3
157	96	-30	-18	-2
157	84	43	-28	-3
158	24	-3	-23	-5
158	-59	-2	-5	3
158	3	24	8	7
158	54	13	-2	10
158	7	29	-7	13
157	10	27	23	8
158	74	46	22	6
158	92	33	63	6
158	20	40	54	7
157	1	44	18	4
157	-31	33	33	1
158	-24	34	-10	-10
158	-10	23	-60	-19
159	-12	19	-45	-10
157	15	31	22	0
158	4	44	29	9
157	-1	49	-16	0
158	-24	-15	-33	-10
158	-24	-42	-15	-12
157	-13	9	14	-6
158	-9	-50	19	-2
158	-48	-28	4	-3
158	-31	56	9	1
157	30	39	21	3
157	15	41	8	9
158	7	46	7	8
157	32	1	-15	4
157	63	-115	-20	4
158	36	-59	-4	11
158	-9	62	-6	4
158	0	37	4	2
158	-34	33	15	9
158	-109	18	16	6
157	-104	14	1	10
158	-83	36	-2	4
158	-140	17	25	0
158	-128	17	51	-1
158	-59	45	50	-9
158	23	41	39	-5
157	85	30	41	-2
157	149	30	56	-7
157	185	21	33	-4
158	118	27	17	-2
158	-42	-9	47	-7
157	-116	-52	10	0
158	40	-12	-22	4
158	69	7	-2	6
157	52	-39	-38	18
158	124	31	-97	22
158	125	61	-45	15
158	139	5	13	4
158	59	10	37	-1
157	-7	100	64	-8
157	-32	113	-24	-6
157	-11	42	-46	9
158	45	79	3	4
158	-12	36	-7	4
157	1	27	-5	3
157	22	23	-13	-2
157	-18	-3	-7	-9
158	-30	11	-4	-7
157	-32	19	0	0
158	-36	33	15	4
158	-66	10	31	0
157	-64	-16	45	-1
158	-45	0	23	2
158	-3	55	2	2
157	28	60	21	-2
158	46	18	35	-4
157	67	-81	24	-9
158	-18	-55	18	-7
157	-93	-3	-3	2
158	-80	-4	3	-4
157	-32	46	41	-1
158	-88	29	26	3
157	-56	83	-2	7
158	19	74	-2	8
158	-30	26	-10	7
157	-1	12	-9	10
158	-2	-34	0	8
157	18	-35	18	4
157	14	-31	33	-5
158	11	-11	24	6
157	44	-3	32	9
157	-9	21	40	7
157	-21	46	20	2
158	-1	54	5	3
158	1	5	-22	10
157	-44	-40	-41	3
157	-45	39	-25	9
158	122	57	-36	-5
157	166	29	-36	-19
158	121	60	-24	-16
157	208	41	-24	2
157	243	20	-8	10
158	134	24	-2	2
157	18	37	-2	-1
157	-67	25	29	5
158	-114	48	70	12
158	-66	35	80	13
157	-36	-41	49	4
158	-25	-31	-2	-1
158	-15	-14	-10	0
158	-21	-7	5	7
157	-36	0	4	1
158	-46	-4	-20	-20
158	-24	11	-58	-14
157	-15	23	-5	-5
158	10	31	47	0
157	89	41	58	10
157	122	41	36	9
157	55	32	-8	3
157	11	9	14	5
158	-48	12	12	3
158	-140	40	12	2
158	-161	33	18	7
158	-77	43	-13	11
157	6	38	-14	10
157	-12	28	0	6
157	-19	21	1	6
158	-8	11	-3	-1
157	14	41	5	-3
158	-6	52	28	-2
157	-75	50	59	-6
158	-32	-3	73	3
158	55	-108	8	-4
158	48	-64	-88	-6
158	3	72	-16	-6
158	-63	97	49	-7
157	-94	71	-11	0
157	-48	100	13	-2
157	-72	75	2	-2
158	-101	15	7	-7
158	9	-92	13	-7
158	156	-75	-18	-4
157	211	10	-1	-5
158	181	-36	2	-7
158	152	-22	13	-1
159	186	-8	4	4
157	143	-15	-9	6
158	29	-2	-17	9
158	-16	63	1	9
158	-50	85	4	9
157	-32	6	-8	10
158	-31	24	-6	15
157	-13	39	2	8
158	14	47	28	2
157	-19	69	59	1
158	10	47	69	-4
157	27	49	32	-4
159	67	61	-16	2
157	83	41	-13	5
158	20	7	48	1
158	-5	-46	15	4
157	-27	-49	-6	0
157	-104	31	1	2
158	-199	29	-18	3
158	-169	41	29	1
158	-88	45	15	1
157	-49	4	3	4
157	-10	24	-7	2
158	-20	54	-30	2
158	-33	73	-37	0
158	-49	17	-27	-2
157	2	-29	0	2
159	75	-55	12	4
158	81	-74	36	10
157	138	-56	24	7
157	101	2	35	8
158	27	32	41	15
157	11	3	52	15
157	44	20	28	19
157	30	38	-56	-12
158	-19	30	-46	-25
157	30	-5	-18	0
158	10	7	-15	-12
158	16	21	-6	-12
158	10	43	12	-7
157	-35	64	10	-16
158	-42	86	14	-13
158	-73	26	31	-9
157	-184	-24	28	2
157	-177	135	35	2
158	24	135	45	4
158	62	30	43	13
157	96	-72	17	18
158	122	-97	-37	9
158	148	17	-49	-3
158	132	-5	-16	-4
158	48	12	-9	2
158	77	21	8	4
158	75	12	54	5
157	93	29	45	0
158	94	15	4	4
158	51	45	0	9
158	-27	13	7	0
157	-100	9	-4	4
157	-94	22	-4	5
158	-141	25	-19	2
157	-141	29	-21	5
157	-31	22	2	2
158	-60	19	21	-2
158	-38	8	32	-6
157	19	8	23	-4
157	-9	-2	34	8
158	19	8	42	5
158	24	19	13	-2
158	20	41	15	-4
158	-7	39	-6	-5
157	-16	13	-46	6
157	-3	37	26	8
158	36	72	107	2
157	56	59	57	3
157	26	-8	-39	2
158	0	-26	-91	0
158	-36	-23	-46	-6
158	-46	-23	0	-4
158	-39	31	-12	7
158	-86	-18	-16	2
158	-105	-92	-21	8
158	-19	-29	3	10
157	100	80	31	10
157	151	116	34	11
157	115	74	34	8
157	148	22	31	-6
157	124	18	28	-9
158	128	42	10	-10
158	132	47	10	-15
158	34	36	16	-11
157	10	21	24	-12
157	-41	3	26	-11
158	-91	12	-1	-8
158	-134	14	-31	11
157	-35	7	-26	7
158	60	-1	27	6
158	-6	-17	14	15
158	-45	-30	2	6
158	-157	-19	20	3
158	-223	6	-12	9
157	-95	-1	-16	10
158	23	5	-22	10
158	43	13	-18	15
158	66	-9	2	16
158	94	-22	25	7
158	77	57	30	-8
158	43	162	8	-21
158	38	152	10	-33
157	-3	99	3	-13
157	-44	31	5	-3
157	-9	14	34	-3
157	-68	7	53	6
158	-140	1	33	6
157	-129	1	1	17
157	-8	-9	0	9
158	75	8	15	2
158	83	11	-16	9
158	97	19	-58	2
157	122	3	-27	6
158	129	5	43	0
158	37	6	71	0
158	64	15	-1	6
158	89	21	-4	8
157	72	-4	25	6
158	74	-13	1	-9
158	62	-15	4	-7
157	82	28	18	0
158	19	58	23	-5
158	24	60	-18	0
157	-8	88	-32	2
157	-90	108	3	-1
158	-136	45	0	4
157	-134	-124	4	9
158	-91	-116	30	10
158	-152	0	45	3
158	-61	-17	26	0
158	-4	22	-16	-2
157	-48	15	-8	-1
158	-62	2	-12	3
158	-73	33	-3	-2
158	9	48	41	2
158	46	88	5	-4
158	77	65	-12	-11
157	46	19	2	-17
158	47	-9	2	-18
157	46	-8	22	-10
158	48	8	75	0
157	52	-41	112	4
157	22	-123	5	17
158	14	-22	-108	32
158	-25	9	-56	14
157	-42	-19	9	3
157	-39	81	-10	4
158	-1	58	0	3
158	-77	44	24	3
157	-115	54	24	-2
157	42	25	15	0
157	154	19	10	0
157	148	22	25	-3
158	128	25	6	-1
158	131	9	-15	-1
158	83	22	-6	-1
157	59	100	2	-1
157	0	123	4	-2
157	-48	98	3	0
158	-40	64	2	-3
157	-60	3	-1	-2
157	-65	29	0	10
157	-42	20	15	9
157	-20	4	38	13
158	-8	26	31	15
157	-5	3	-8	21
158	-19	-36	-18	8
158	-14	-71	16	-7
157	32	-81	24	-1
158	106	7	-5	-7
158	146	89	-12	-6
158	121	9	17	-9
157	74	10	10	-6
158	1	41	0	3
158	-122	7	10	1
157	-259	8	-32	3
157	-175	15	-49	0
157	-11	53	-29	-5
158	-14	93	-30	-2
157	38	101	10	-5
158	41	77	64	-2
158	9	77	91	3
158	12	38	43	13
158	-17	-77	10	24
157	-23	-152	37	18
157	-22	-82	3	3
157	5	2	-14	-6
158	-10	-27	-21	-1
158	-19	37	16	-9
158	-56	59	56	-12
158	-56	48	19	-4
157	5	54	10	0
158	32	13	17	-2
159	65	17	25	-6
158	39	-9	11	0
158	-14	-31	28	-4
158	35	-9	60	-13
158	55	46	29	-22
158	-65	16	-46	-1
157	-100	16	-59	7
157	56	29	35	3
157	161	16	1	8
158	137	39	-56	-4
157	155	30	-27	2
158	133	42	9	8
157	130	45	3	10
158	48	40	-11	16
157	-16	7	14	10
158	29	-46	5	3
157	-11	-17	3	6
157	-17	72	-21	11
158	-52	33	-24	0
157	-103	26	-25	5
158	-140	24	-17	10
158	-94	-11	8	12
158	-9	16	-4	7
158	-64	9	7	4
157	-14	33	19	0
158	34	30	63	-7
158	26	26	73	-5
157	36	-9	47	-8
158	-13	-33	36	-8
158	11	-31	26	-3
158	14	-37	21	7
157	9	1	23	11
158	-8	50	40	6
158	-25	106	5	-2
158	-9	226	-73	-4
157	-53	165	-78	-6
158	-29	-2	-24	1
157	30	75	22	14
158	49	29	62	11
157	49	-60	28	4
158	37	-61	-6	2
158	17	-49	-1	8
158	-30	57	23	3
157	-73	116	38	0
157	-87	41	26	4
157	-46	14	20	-3
158	42	35	-15	-9
157	28	-61	-7	-13
157	-52	-150	6	1
158	-13	-87	-12	6
158	102	17	-20	10
157	86	-6	-15	-2
158	66	18	9	-21
157	116	12	16	-8
158	65	-11	16	-2
157	7	-12	5	-5
157	-3	8	9	4
157	28	66	2	10
157	-37	58	20	4
157	-29	62	53	-1
158	-6	38	37	-3
157	-4	3	7	4
158	70	-1	-4	0
158	45	6	0	-4
157	26	27	-25	2
158	-22	26	-9	6
157	-46	18	23	19
157	-28	15	27	18
157	-47	0	12	12
158	-85	-5	-26	10
157	-71	30	-43	-6
158	16	66	-23	-1
158	73	71	39	9
157	52	89	127	-2
157	33	62	120	-8
158	24	4	-45	1
158	18	15	-96	7
158	11	27	23	-1
157	-4	14	31	-2
157	-12	-30	-2	-1
157	-33	-61	-20	-10
158	-22	49	-23	-10
158	11	68	16	-2
158	31	35	-4	-2
157	38	43	16	-2
157	44	-5	39	0
157	58	8	-4	7
157	44	21	-54	13
157	32	13	-54	7
158	7	-2	-8	8
157	-37	-3	2	13
158	-72	-2	28	2
157	-45	24	19	5
158	33	34	-3	10
158	-9	-8	-7	0
158	-44	-36	-3	-4
158	8	-32	13	0
158	-128	75	5	-2
158	-267	86	26	-4
157	-101	18	18	2
157	114	66	5	-1
157	102	75	30	2
157	103	71	54	6
158	112	32	65	13
157	124	1	31	9
157	60	-47	-12	2
158	-88	-51	-35	-6
158	-63	40	-37	-9
157	44	34	-3	-1
158	56	38	5	0
157	0	48	12	-1
158	18	27	43	3
157	-43	-6	34	9
158	-70	9	10	1
157	-37	47	5	-4
157	-17	-61	17	-9
157	56	-114	24	-3
158	87	-3	18	7
158	106	-8	-11	-9
158	119	-35	-43	-15
158	121	-18	-19	-2
158	59	-28	10	-10
158	-13	34	-6	-5
158	-42	69	2	-7
158	-29	77	16	-12
158	5	82	-11	-1
158	22	56	-15	7
157	12	31	-5	14
158	-37	-7	24	14
158	-40	-17	18	4
157	-6	-1	-7	3
158	9	11	29	6
158	-21	53	35	-5
158	-16	98	36	-2
158	-106	69	31	10
158	-254	16	32	11
157	-107	60	32	-1
157	38	77	14	-9
158	-20	-55	25	-6
157	29	-68	-14	-4
159	124	48	-22	6
157	145	52	2	5
158	161	52	8	4
158	100	57	19	-2
158	-34	38	7	-2
158	-86	34	9	7
158	-53	3	34	11
158	-18	-6	59	8
158	5	-15	0	10
158	-15	11	-74	9
158	-8	31	-52	0
158	-5	17	-23	3
158	-4	13	-6	5
158	-18	-13	1	4
158	-42	-47	-2	9
158	-37	-8	16	3
158	5	48	32	-2
157	49	58	46	-8
158	46	128	35	-11
158	65	111	36	-6
158	75	-27	19	5
157	71	-103	-5	4
158	68	-125	25	-4
157	36	-124	-26	4
158	-6	26	-34	7
157	-27	130	9	5
158	-17	30	5	7
157	-18	29	39	5
157	-21	54	-5	0
158	-15	36	-72	6
157	-15	22	-89	10
158	-33	28	-47	-2
157	-13	46	29	-4
158	22	57	30	-11
157	42	54	27	-9
158	86	49	29	-7
157	71	47	11	-6
158	0	4	-12	2
158	-19	-95	-27	7
157	11	-151	-15	10
158	-6	-13	10	6
157	-53	38	27	6
157	-41	35	39	-1
158	30	67	46	-6
158	43	52	37	-3
157	-29	46	24	1
158	-75	21	30	-1
158	-132	35	27	4
158	-205	20	2	0
157	-149	13	13	5
158	30	17	28	15
158	144	12	-10	5
158	311	11	-23	0
157	347	15	39	-8
157	278	24	13	-8
158	190	29	-15	-1
158	-81	25	29	8
158	-263	10	12	5
157	-324	9	15	9
157	-134	11	36	11
157	-72	33	36	2
158	-75	43	36	5
157	-14	52	43	0
157	-30	48	40	-1
157	63	41	10	4
158	5	6	-14	4
158	-9	-41	-13	0
158	-6	-14	-20	2
158	19	38	-8	1
158	41	35	52	-3
157	36	6	34	-10
158	102	-3	-63	-4
157	131	90	-67	8
158	112	69	-2	7
158	52	-26	-11	8
158	24	55	-7	2
158	-26	13	-2	-12
158	-16	23	-2	-10
158	-28	37	14	-10
158	-37	-28	10	0
158	4	-54	16	6
158	7	-172	23	9
158	-36	-100	37	11
158	-109	85	33	2
158	-123	120	-5	8
157	-92	134	-29	8
158	37	132	-21	7
158	135	74	10	-1
158	81	74	0	-7
158	104	34	25	-6
158	196	-81	28	-6
158	11	-139	0	2
157	-138	-26	-16	-4
157	-101	25	-17	-4
158	-63	2	18	-4
157	-21	59	10	-2
157	-13	42	6	4
158	14	44	-1	-3
158	25	38	-6	-1
157	37	32	6	2
157	45	21	8	10
157	46	12	-2	7
158	47	25	-26	11
158	20	30	-9	2
158	4	30	34	-7
157	4	-5	35	5
157	-3	-20	-5	14
157	-16	-36	-37	15
157	11	8	-25	7
158	23	64	26	-5
157	-7	46	32	-9
157	-39	31	27	-4
158	-41	26	45	2
158	1	11	51	-2
157	-18	9	41	3
158	-37	-7	8	3
157	-10	24	27	-2
158	24	33	42	2
158	63	6	-26	4
158	72	-2	-47	2
158	56	-6	-35	0
