File Name: not saved
Channel 3: 'EKG', 23560 values, raw ADC, no filters.
Channel 4: 'FCR_EMG', 23560 values, raw ADC, no filters.
Channel 5: 'FCU_EMG', 23560 values, raw ADC, no filters.
Channel 7: 'ECU_EMG', 23560 values, raw ADC, no filters.
Channel 8: 'ECR_EMG', 23560 values, raw ADC, no filters.

157	34	11	20	-7
158	27	24	-8	-4
158	5	25	-34	0
158	-10	15	-35	2
158	-24	34	-15	0
157	-13	4	-4	6
158	-7	-17	4	3
157	-10	-4	24	2
158	-9	-5	20	7
158	-11	7	15	4
157	-8	9	29	1
158	-15	15	17	0
158	-25	19	8	-6
158	-31	15	-1	-9
158	2	14	-11	-1
158	69	16	4	3
157	102	15	4	12
158	73	12	7	15
158	42	28	15	10
157	5	50	15	9
158	-102	23	22	3
158	-166	-3	25	2
158	-36	19	24	4
158	56	18	16	-4
157	7	29	8	-4
158	-2	37	4	0
158	-18	32	12	2
158	-16	33	15	0
157	3	17	15	2
158	1	19	-3	10
157	8	15	-38	13
158	2	14	-18	0
158	7	15	6	-11
157	-1	9	-8	-7
157	9	5	-2	-5
157	38	9	2	0
158	29	9	1	4
158	-33	22	0	3
157	-26	21	-8	3
158	37	7	-7	-1
158	22	-12	15	2
158	35	-43	19	7
158	94	-20	19	2
157	122	58	46	2
157	43	108	45	2
158	-51	39	-2	4
157	-107	5	-41	4
157	-99	29	0	-5
157	-13	14	22	-2
157	43	27	12	-6
158	51	26	18	-1
157	64	40	-7	-8
158	110	43	1	-18
157	120	39	0	-4
158	63	40	14	4
158	-1	31	17	8
157	-45	22	4	4
157	-106	7	8	6
158	-154	9	-7	4
158	-95	4	4	-1
157	-3	5	4	1
158	13	8	8	-3
157	22	11	12	-2
158	23	11	8	-1
157	30	10	12	2
157	36	11	7	2
158	10	10	9	4
158	6	11	7	7
157	-2	14	13	7
157	-1	22	24	4
157	-5	10	20	6
157	-8	-4	20	7
157	1	-4	16	0
157	1	-2	3	3
157	-3	3	-18	6
158	-16	11	-23	2
157	-3	23	-6	-4
158	34	29	-4	-6
158	71	24	6	0
158	60	27	28	4
157	38	26	30	6
158	46	23	28	3
157	15	32	24	3
157	-49	30	22	2
157	-69	29	24	-5
158	1	32	14	-8
157	27	45	-12	-14
158	-7	44	-11	-14
158	1	34	10	-5
157	6	24	14	6
157	17	8	16	9
158	4	16	-2	7
157	2	7	-31	5
158	-11	-14	-13	0
157	-24	5	13	0
157	-27	42	-5	6
158	-32	29	-9	1
157	-6	5	-10	4
158	-2	13	-1	8
158	-18	13	3	9
158	-85	14	9	9
158	-95	16	17	7
158	-2	14	14	6
158	55	14	23	-3
158	70	11	19	4
157	63	18	15	0
157	45	27	14	3
158	-30	28	21	12
158	-36	9	42	12
157	61	-8	34	13
158	72	-21	-1	4
157	71	-16	-6	-9
157	117	17	-12	-19
158	150	35	-34	-13
157	128	28	-11	-6
157	49	33	-18	-10
158	37	37	-22	-8
158	14	22	-4	-5
157	-74	31	-7	-5
157	-120	49	9	0
158	-100	42	8	4
157	-17	26	17	10
158	-44	28	24	9
157	-41	36	34	6
157	-23	22	43	9
158	-52	3	39	6
157	0	-1	41	7
157	23	9	16	9
158	34	4	10	-2
158	33	1	2	-12
157	12	0	-10	-4
158	-38	-11	7	2
157	-72	-13	12	5
157	-9	-8	13	0
157	43	-5	14	-3
157	8	30	6	-2
158	-32	74	5	-1
158	-26	32	8	1
158	3	6	15	-1
158	19	30	21	4
158	21	38	19	9
158	15	36	16	9
158	11	17	6	-2
158	32	38	-9	-8
157	20	65	-23	-3
157	1	51	-34	-2
157	-11	5	-17	2
157	-80	-3	-8	4
158	-94	5	-10	7
157	-12	3	-7	9
158	36	9	4	15
158	99	8	12	16
158	112	15	7	17
157	81	6	16	14
157	115	7	27	0
158	89	7	30	-14
157	17	10	24	-16
157	-35	15	-15	-9
157	-38	14	-26	-17
158	-32	15	2	-11
159	-73	14	-3	-2
158	-92	14	4	-1
157	-51	16	16	0
159	-25	29	9	0
157	20	25	22	1
157	59	19	10	2
157	70	13	8	2
157	93	9	15	0
158	104	32	25	7
157	131	30	43	17
157	74	8	45	10
158	5	23	25	3
158	-11	23	-28	10
157	-63	9	-32	3
157	-145	9	-30	4
158	-166	8	-26	4
157	-62	16	6	-4
158	-6	20	0	1
157	22	17	8	0
158	62	16	8	-10
157	40	3	10	-8
158	18	-22	19	7
158	-12	4	22	14
157	-40	59	21	7
157	-86	66	2	-2
157	-69	46	16	-9
157	12	36	6	0
158	19	30	-1	2
157	27	33	4	-4
157	36	37	13	2
157	4	33	18	2
158	11	21	13	5
157	27	20	26	4
157	21	24	32	0
158	0	16	27	0
157	4	8	15	4
158	0	6	12	8
157	11	5	8	7
157	63	2	-14	8
157	71	13	-19	1
158	62	19	-1	-1
157	33	22	10	-2
157	3	23	10	-1
157	-13	18	23	-1
158	-18	16	20	2
157	-5	12	13	9
158	-55	9	5	4
157	-113	6	-1	1
158	-74	7	10	-1
158	-11	19	8	-6
157	27	9	-5	-5
158	101	-6	-10	0
157	132	-3	-15	0
158	121	11	-15	4
157	120	27	0	6
158	42	24	10	7
157	-30	14	8	8
158	-32	15	-3	4
157	-5	25	-1	-4
158	-38	43	5	-13
158	-94	67	8	-11
158	-128	34	26	-3
158	-113	15	45	4
157	-25	14	48	3
158	81	1	34	0
158	117	10	-9	3
158	111	0	-48	6
157	175	3	-25	0
158	129	13	-15	-5
157	-2	59	-24	2
157	-74	70	12	0
158	-84	8	21	-2
157	-111	-6	14	-7
158	-115	-9	13	-11
158	-30	-3	-3	-12
158	-55	27	-8	-14
157	-64	15	5	6
157	-48	21	19	11
157	-35	34	17	11
157	10	39	22	9
158	33	29	24	4
158	79	-7	13	10
158	83	-12	11	8
158	84	15	13	6
157	58	55	21	4
157	25	54	14	7
158	1	19	2	6
158	-24	14	-3	5
158	-11	10	4	5
157	-20	3	16	-1
157	-14	2	19	-2
158	10	14	23	-1
158	19	28	25	-1
157	-4	23	13	3
157	-8	15	8	-1
157	-3	13	6	1
157	-4	9	-4	2
158	20	24	5	-4
157	15	26	10	0
157	8	2	9	-2
157	-54	11	10	-6
158	-87	17	9	-7
158	-24	17	4	-1
157	1	24	-8	-1
157	48	21	-2	1
158	106	26	-7	8
157	128	21	-12	4
157	110	19	-2	6
158	95	16	-2	-3
157	53	11	2	0
157	-31	13	15	10
158	-19	13	14	1
157	20	18	19	8
158	-14	21	15	7
157	-37	21	4	-2
158	-44	19	1	3
158	-44	22	-3	-1
157	4	21	4	-2
157	44	17	8	-2
158	36	19	3	0
158	-14	18	-12	4
157	-56	16	-10	6
157	-122	16	6	7
157	-163	13	6	6
157	-123	10	20	6
157	1	8	35	4
158	57	0	63	2
158	16	-3	59	-12
158	63	11	-11	-8
158	145	38	-61	6
157	145	62	4	-2
158	68	44	19	-4
158	15	35	-33	-4
158	-19	38	-1	-12
157	-18	11	3	-11
158	-22	6	3	0
157	-8	17	13	9
158	30	30	6	14
157	23	17	2	14
158	32	7	10	4
158	9	19	15	4
158	-28	18	3	6
157	-35	13	9	8
158	-27	11	14	9
158	-7	7	5	-4
158	28	15	3	-3
158	30	27	4	0
158	2	17	3	-2
157	-13	-1	-2	1
157	-50	-3	5	-1
157	-24	4	5	-6
158	8	9	4	-7
157	-31	5	4	-3
158	-42	1	8	7
157	19	19	17	7
158	40	44	22	4
158	30	43	37	9
157	24	24	48	14
158	-29	1	56	17
158	23	-1	22	3
158	88	33	-8	-10
158	57	62	3	-10
158	18	51	-5	-8
158	16	19	11	-2
157	40	5	3	-5
157	31	19	-2	-9
157	0	29	6	7
158	-13	26	-11	7
158	-29	17	-8	0
157	-36	31	-12	-1
158	-41	79	-15	-8
158	-39	47	-25	-2
158	-16	-12	-15	1
157	-5	0	-1	2
158	13	3	5	5
157	24	6	13	2
157	35	12	10	9
158	54	5	23	15
157	94	12	32	11
157	92	10	31	-5
158	58	18	33	-14
158	75	11	29	-9
158	-12	6	41	-6
157	-156	9	57	-2
158	-202	10	47	-3
157	-132	12	3	0
157	-101	13	-55	6
158	-46	15	-18	4
157	59	15	8	8
157	37	18	-59	10
157	50	15	-36	8
157	43	18	-6	6
157	34	18	8	2
158	32	19	8	4
157	-3	19	4	0
158	32	18	16	-1
157	38	19	-7	2
158	49	21	-2	8
158	43	21	-2	8
158	42	15	-2	8
157	35	13	-2	10
158	11	11	4	3
158	18	19	21	3
158	26	15	24	4
158	-8	10	25	-1
159	-100	12	16	6
158	-114	11	18	2
158	-61	18	15	4
158	-12	26	8	3
158	36	37	6	-1
157	58	36	14	-2
158	77	28	18	-4
158	83	21	20	-11
158	60	7	12	-17
157	29	6	-11	-8
158	0	21	-4	-4
158	1	5	2	-1
157	38	9	3	-2
157	34	39	14	-6
157	-2	69	16	2
158	29	63	17	1
157	32	21	21	-3
157	-12	19	17	2
157	-19	13	13	6
158	15	13	13	4
157	-28	11	12	7
157	-112	4	2	2
158	-118	3	-5	-6
157	-26	-8	3	-5
158	10	0	0	2
158	-12	5	0	6
157	17	19	3	4
157	2	30	2	11
158	19	34	2	8
158	8	30	6	2
157	-1	31	13	0
158	18	31	13	-4
158	49	28	11	-1
157	58	37	10	2
158	34	22	10	1
157	37	6	10	-2
157	-16	-17	-7	5
158	-61	-36	-10	13
158	-48	-13	33	11
158	23	31	56	15
157	21	39	43	2
158	-19	24	-16	-7
158	-20	28	-52	-7
157	-56	28	-17	-14
158	-29	18	-4	-2
157	-7	11	-13	2
158	11	14	-14	2
158	47	15	3	-1
157	59	17	16	-4
157	54	18	9	0
158	24	22	4	-4
158	22	27	-8	-2
158	32	29	-8	-1
158	17	24	8	2
157	13	22	0	4
158	26	21	-4	3
158	35	13	11	1
157	38	7	13	-5
157	19	14	5	-6
157	9	19	10	3
157	17	16	17	7
158	19	20	24	6
157	-13	18	23	1
157	-93	16	16	-8
157	-118	15	23	-6
157	-47	10	31	-1
158	15	20	25	-1
157	41	25	16	2
158	60	24	13	9
158	92	25	26	4
158	89	26	28	0
158	65	24	13	2
157	29	18	4	-1
158	-16	14	5	7
158	-23	13	13	14
158	-31	14	9	5
157	-40	13	4	3
158	-37	15	1	11
158	-32	13	6	10
157	-27	14	7	6
157	-15	17	-2	0
158	-8	18	-4	-2
157	-3	21	-7	6
158	5	28	-8	4
157	21	34	-2	0
158	33	32	5	-6
157	26	30	1	-19
157	12	18	1	-9
158	13	10	8	3
157	8	7	9	3
158	-12	-2	13	7
157	-32	-1	19	2
158	-14	-1	20	1
157	72	5	16	7
158	124	13	-7	4
157	117	12	-14	0
158	71	22	-21	7
157	-26	27	-30	2
158	-120	27	12	-4
158	-180	36	9	-4
158	-141	35	26	0
157	-47	32	51	3
158	-83	27	24	-1
158	-105	15	-5	-4
158	-14	19	-35	3
158	-10	21	-2	0
157	11	18	0	-1
157	41	21	9	2
158	60	26	26	-1
158	97	30	12	1
158	102	26	23	4
157	100	10	26	7
158	68	5	36	4
157	46	5	23	7
157	35	0	-4	7
157	31	10	-11	-2
158	11	34	-12	-9
157	-8	49	-17	-9
158	-31	11	-6	-2
157	-36	5	-3	1
158	-22	17	-5	2
158	-9	8	2	4
157	5	8	8	-4
158	12	6	20	0
159	12	14	24	2
157	-32	12	42	7
158	-25	13	45	0
157	30	19	25	2
157	27	18	6	5
158	49	1	-22	-1
158	64	-10	-18	-4
158	58	-24	12	-5
158	61	-14	19	-6
158	52	38	-1	-7
158	20	61	-16	0
157	-32	56	0	-5
158	-29	51	13	-5
158	-12	39	6	-3
157	7	26	4	4
157	6	22	16	4
157	-29	15	22	11
158	-45	22	11	6
158	-20	23	-8	0
157	-17	19	-6	8
158	-7	22	16	7
159	-8	17	6	13
157	-5	18	-1	6
158	56	19	-4	5
157	55	19	5	6
157	25	17	31	7
157	19	17	19	0
157	-25	14	-3	-9
158	-86	14	0	-4
157	-80	11	6	-2
158	39	15	3	-2
158	77	14	10	2
158	27	9	2	3
158	8	12	1	6
159	-23	15	2	8
158	-65	16	8	8
157	-113	19	15	9
157	-49	17	9	9
157	24	15	8	7
157	10	19	6	3
157	26	21	13	6
157	9	14	22	4
158	-2	14	29	2
157	-4	45	27	-4
158	-9	74	-11	-6
158	11	26	-51	-3
158	23	1	-6	-3
158	32	19	29	-5
157	28	11	7	-10
157	3	14	-9	-6
158	-16	2	-28	2
157	3	10	4	-2
158	16	34	5	4
158	46	17	6	6
158	62	-5	17	-2
158	69	11	4	-3
157	77	19	17	2
158	54	11	13	-2
158	52	17	17	0
157	27	15	11	2
158	2	18	3	3
158	-1	19	4	9
158	-4	17	14	7
157	-4	19	19	4
157	-7	23	9	0
157	-1	22	4	1
157	8	16	-16	0
158	3	15	-1	0
157	-6	18	20	10
158	-6	19	20	10
158	-20	17	15	6
157	-36	13	6	9
157	-36	9	1	-7
158	-30	18	15	-17
158	-20	19	42	-10
158	-26	16	55	-10
157	-74	19	25	-12
157	-112	22	-4	-10
158	-61	21	-1	3
158	-3	17	-13	6
158	19	6	5	2
158	59	11	10	8
158	88	15	4	2
157	110	14	10	-3
158	125	16	10	1
158	138	6	19	3
157	98	17	3	3
157	37	24	-14	6
158	23	16	-16	-4
157	-20	21	-4	-11
157	-59	22	-2	-1
158	-95	19	5	4
157	-6	34	15	5
157	92	48	8	2
158	43	59	5	1
158	-25	48	-1	6
158	-104	25	3	2
157	-135	7	6	5
158	-49	-13	8	13
157	-16	-8	15	7
158	-14	37	20	1
158	4	47	17	3
157	-7	18	-4	4
158	15	11	-9	7
157	2	17	2	7
158	9	14	-3	3
158	14	13	-2	2
158	11	14	14	6
158	21	13	15	3
158	12	15	16	1
158	17	11	24	0
158	8	12	21	-1
158	-5	15	0	0
157	-19	16	-28	-1
158	-11	15	-2	-4
158	0	14	10	2
158	4	13	-2	7
158	6	16	6	8
157	-1	16	2	2
157	-22	15	12	2
158	5	18	17	7
158	55	15	14	-1
158	55	16	10	-1
158	69	19	23	0
158	79	13	37	0
157	79	14	16	0
157	73	14	-23	2
157	49	17	-19	5
158	32	20	6	2
158	-24	23	2	-2
157	-46	19	8	-2
157	-24	28	14	-1
158	-26	32	14	-4
158	-24	32	12	-1
158	-15	35	2	-2
157	-23	25	5	-4
158	-20	23	5	2
157	-2	24	32	-1
158	9	22	33	-7
157	-1	20	1	-6
158	-4	21	-10	4
158	-2	12	3	8
158	-11	14	21	-1
158	-9	16	25	-1
157	-3	16	17	1
158	1	18	6	2
157	2	14	3	3
157	5	14	9	7
157	3	13	8	4
157	5	13	-3	0
158	5	13	-2	-9
158	3	13	-3	-9
158	6	14	-4	-1
157	0	15	0	0
157	-8	14	-6	4
157	-7	14	0	2
157	0	15	16	2
158	6	13	20	4
157	8	16	15	0
157	16	21	4	3
158	26	21	8	4
157	25	22	10	2
158	15	18	17	8
157	11	15	16	6
157	12	15	7	2
158	10	15	8	-1
158	8	17	10	6
158	4	13	18	19
157	5	14	14	15
158	4	17	3	9
157	3	18	3	2
157	6	21	0	-10
158	7	23	-27	-11
157	0	22	-3	-3
157	-40	15	6	2
157	-93	15	-18	1
158	-60	19	4	-2
157	-29	19	-8	-2
157	-29	19	2	0
158	24	21	18	-1
157	61	19	8	-5
158	98	23	11	-1
157	129	20	8	7
157	158	17	17	7
157	134	21	16	9
158	69	21	18	5
158	66	23	12	3
158	-9	18	8	6
157	-103	15	14	1
157	-172	15	14	2
158	-103	16	15	-4
158	19	16	5	-4
157	42	21	-2	1
158	56	22	7	3
158	8	22	14	6
157	-14	23	19	7
158	-59	16	26	4
158	-158	15	27	-2
158	-203	18	26	-6
158	-118	17	18	-4
158	-5	17	-10	-2
157	27	16	-25	6
158	90	17	-27	7
157	112	28	-10	6
157	122	33	2	4
157	125	40	-5	3
158	97	40	9	5
158	55	17	6	1
157	19	9	14	0
157	9	6	12	4
158	2	-8	7	-1
158	-1	3	15	-6
157	-7	10	14	-6
157	-17	13	21	-3
157	-23	14	14	0
157	-23	17	8	8
157	-21	22	-3	0
158	-12	33	2	-7
158	-5	32	12	6
158	-10	25	12	10
157	-26	27	17	4
158	-13	19	7	-2
158	3	22	9	2
158	7	28	5	-6
158	15	29	0	-6
157	20	26	10	-4
159	27	17	0	2
157	35	17	-4	3
158	30	17	6	0
157	23	16	6	7
158	17	12	0	-2
158	11	13	1	-4
158	6	16	4	-1
157	0	13	5	5
157	-3	13	8	7
158	-7	14	5	9
158	-7	14	1	7
157	-2	12	4	2
157	-1	16	6	2
158	-3	15	2	-1
158	-4	14	1	4
157	-2	17	3	7
158	-1	17	8	6
157	-3	13	23	1
158	-2	15	24	0
158	0	17	12	-3
158	2	15	7	-10
157	2	16	15	-21
158	2	15	17	-16
157	2	13	24	3
157	4	17	31	13
158	4	15	42	13
158	5	15	46	2
157	3	18	37	-1
157	3	15	2	8
157	5	15	-25	12
158	5	19	-2	6
157	7	18	-6	2
158	8	18	-2	1
158	8	20	-8	-10
157	7	23	-36	-2
157	8	25	-44	-1
158	7	22	-12	3
158	6	19	13	5
157	8	18	6	2
157	7	14	21	4
158	10	18	15	-2
157	8	18	13	3
157	7	17	6	3
157	9	21	10	6
158	8	18	15	10
158	10	18	17	7
157	5	21	34	8
158	3	16	24	6
158	6	19	7	8
157	5	23	0	4
157	5	17	13	0
157	7	21	13	-7
157	5	19	1	-15
157	5	17	-16	-23
157	5	19	-22	-15
158	4	21	12	0
158	6	22	36	0
157	4	18	20	4
157	4	17	7	4
157	4	18	-22	-1
158	5	20	-56	-6
158	7	22	-50	0
158	3	19	-38	-2
158	3	16	-24	2
157	1	18	12	5
157	1	17	44	6
157	-1	19	52	10
157	-7	15	67	6
158	-6	12	47	9
158	-4	16	15	3
158	-1	14	5	6
158	0	20	11	4
158	8	21	23	4
158	22	22	23	4
157	27	23	13	3
158	22	19	-3	8
157	15	20	-5	4
158	10	21	-2	1
158	9	22	4	-1
158	11	24	7	-4
158	11	20	16	0
158	5	17	24	2
157	4	17	22	4
158	3	20	2	8
158	1	18	-30	7
158	-2	16	-10	6
158	-7	15	8	3
158	-4	18	12	-4
157	-1	19	40	-12
158	5	17	32	-9
158	16	22	-2	2
158	17	23	-15	8
159	10	20	8	2
158	11	17	-7	4
158	10	18	-24	2
158	1	18	-5	-8
158	-4	20	6	-7
158	-4	17	11	-2
158	-4	17	13	-4
157	1	19	13	2
157	4	19	12	7
157	4	18	3	0
157	-5	19	-12	0
157	-14	15	-20	1
157	-5	14	5	1
157	2	18	24	4
157	4	16	8	4
157	10	18	15	3
158	10	19	17	4
158	18	16	8	2
158	22	19	15	0
158	17	19	4	3
157	11	19	10	4
158	10	19	10	7
158	5	18	6	3
158	3	15	8	4
158	3	14	-2	3
158	4	14	-5	-4
158	6	18	-7	-6
157	5	19	-4	-6
158	1	14	10	2
157	0	17	19	4
158	3	16	8	2
157	2	17	0	3
157	3	18	8	5
157	3	15	8	2
158	1	17	12	4
159	3	17	10	4
158	1	21	12	2
158	3	18	15	7
158	4	19	9	8
159	8	19	15	-1
157	4	19	21	-3
158	2	19	24	4
157	5	18	29	8
157	3	21	19	15
157	6	20	4	18
157	4	19	-7	13
157	5	15	-5	12
158	4	14	5	7
157	6	18	7	1
158	8	18	1	-4
157	10	17	-2	-21
158	12	20	4	-41
157	9	19	-4	-31
157	9	20	-13	-17
158	8	20	-3	-9
157	4	17	3	1
157	3	17	32	12
158	3	19	65	22
157	7	19	40	22
158	5	17	14	17
158	5	21	25	9
157	8	19	25	-2
157	4	22	10	-14
158	7	24	0	-38
157	9	25	-12	-46
158	5	18	-22	-46
157	3	11	-31	-42
157	5	18	-17	-35
157	1	19	44	-30
158	1	17	57	-15
158	3	21	-36	10
157	3	17	-38	18
158	1	16	15	20
158	0	19	-1	20
157	3	18	-11	19
157	4	18	-47	17
158	4	17	-36	14
157	4	15	6	20
158	5	17	24	22
158	5	21	17	27
157	8	18	13	26
158	6	17	36	21
158	6	18	31	15
158	5	15	22	14
158	6	18	14	18
158	3	19	22	14
158	1	15	20	18
158	4	17	5	17
158	5	18	-12	20
157	4	19	-36	23
158	4	20	-16	21
158	3	18	6	25
158	4	18	-1	25
157	4	17	6	28
157	7	17	25	18
157	7	18	36	11
158	7	15	31	9
158	5	17	9	-11
157	5	19	11	-41
157	5	19	13	-45
158	8	20	12	-32
158	9	19	-5	-33
157	5	14	-30	-34
157	3	14	-21	-29
158	7	15	16	-5
157	6	13	40	0
158	7	14	16	-1
157	8	17	-2	9
158	9	20	4	13
158	10	22	37	14
157	7	21	70	10
158	4	21	36	4
157	5	23	1	-1
159	4	23	19	-5
158	6	18	13	-16
159	5	19	5	-16
157	1	17	-1	-19
158	3	17	-19	-18
157	4	19	-9	-5
158	3	17	1	6
157	3	20	-8	17
158	3	17	-6	24
158	0	15	3	26
158	0	17	-16	18
158	2	17	-26	12
158	0	15	-8	27
158	3	18	-13	37
157	4	17	-25	27
157	1	15	-14	22
157	2	20	-23	25
158	6	22	-17	16
158	10	18	29	7
158	6	17	86	-1
157	5	20	54	-22
158	7	19	29	-53
157	10	19	83	-60
159	12	25	5	-62
158	8	22	-9	-66
158	8	20	6	-45
157	7	19	21	-17
157	3	15	39	-5
157	3	14	6	3
157	6	17	13	2
157	8	22	-27	-2
157	7	17	0	-3
157	7	14	3	-13
158	5	16	16	-1
157	5	17	2	24
157	3	11	-1	20
158	2	13	28	25
157	7	19	-23	27
158	5	15	-18	24
158	5	17	-1	33
157	6	18	8	29
157	3	18	1	17
158	6	21	-4	-1
158	5	19	15	6
157	2	18	0	7
157	3	21	-42	19
158	5	22	-12	22
157	4	17	13	15
157	4	16	-27	10
157	10	21	-44	-6
158	12	23	-38	-16
158	8	19	-3	-8
157	1	19	13	4
157	-3	17	50	-4
157	-5	17	84	-1
157	-3	19	62	2
157	2	15	28	-3
158	6	16	31	2
158	5	22	58	9
157	4	21	30	11
158	4	19	25	7
157	3	13	13	0
158	4	14	-9	-2
157	5	22	-29	11
158	7	20	-22	11
158	2	15	12	9
157	8	18	11	10
157	9	18	24	11
157	9	20	11	22
158	8	25	9	11
158	7	21	29	3
158	7	21	49	7
158	1	16	57	10
157	3	14	29	18
157	4	15	-18	17
158	3	11	-52	16
158	3	11	-74	18
158	4	17	-66	8
157	10	19	27	-20
157	4	19	-31	-44
158	8	27	-92	-80
158	14	32	-22	-104
158	15	29	7	-102
158	7	21	94	-89
157	3	17	56	-56
158	3	16	-30	-12
157	5	16	-19	7
157	8	21	8	18
157	5	17	41	31
158	-1	12	27	42
157	-1	14	39	55
158	1	19	57	56
158	1	13	25	44
157	1	11	2	29
157	3	11	14	0
158	1	17	6	-29
157	1	19	0	-35
157	5	17	4	-24
157	5	17	20	0
157	5	15	19	13
157	9	18	6	11
157	10	14	13	22
158	7	15	-9	21
157	6	18	8	22
158	7	17	3	22
158	8	19	-34	18
157	5	14	-14	20
158	1	13	14	15
157	2	12	44	8
158	8	19	45	-5
158	7	22	16	-5
157	8	19	6	0
157	8	19	-3	6
158	9	19	-10	10
157	7	22	-16	15
157	1	19	-6	16
158	-9	18	12	15
158	-14	11	-8	8
158	-7	9	-14	9
158	-3	11	-15	11
157	0	16	-9	-1
158	-1	17	10	-5
157	4	17	26	-10
158	17	22	-12	-8
158	26	28	-29	-1
158	27	31	19	2
157	22	31	-12	-1
158	13	31	-6	4
157	-5	24	31	2
157	-9	20	56	-8
158	0	16	46	3
158	7	18	-10	2
157	10	21	28	1
158	8	17	56	0
158	13	19	52	-9
157	17	19	39	-4
158	20	17	14	7
157	16	15	16	-2
157	8	17	16	-3
158	8	20	-2	1
158	5	21	-32	-9
157	4	21	-24	-7
157	1	18	-14	-6
158	0	19	-10	1
157	2	17	-12	10
157	-3	17	-7	14
157	2	20	33	18
157	1	19	65	9
157	3	17	58	5
158	5	19	-16	-8
158	4	16	-79	-13
158	8	15	-118	-8
158	2	16	-110	-20
157	1	16	-10	-38
158	4	15	42	-48
158	3	18	31	-42
158	1	17	70	-11
158	0	14	69	2
158	0	13	46	12
157	-4	16	32	6
158	0	20	-8	4
157	7	14	3	28
157	4	8	14	20
159	8	13	19	16
158	8	21	-3	12
158	3	18	17	14
157	3	18	39	21
158	5	22	4	18
157	5	25	15	19
157	5	21	35	13
158	0	22	5	11
157	3	26	-24	0
157	6	24	-28	-12
157	5	22	-39	-26
158	4	17	-57	-21
158	1	14	-57	-5
158	1	14	20	-2
157	3	10	139	0
157	3	18	52	3
158	5	29	-46	-4
158	7	24	-42	-7
158	4	21	-33	-12
157	5	17	64	-7
157	2	9	86	13
158	5	15	89	24
157	5	20	53	37
158	8	20	-21	36
157	11	21	-7	30
158	7	18	-8	21
158	1	15	-20	9
158	-12	14	-9	-9
157	-13	19	-18	-14
157	0	22	-24	-30
158	7	19	22	-51
158	15	17	-11	-46
158	16	15	-69	-25
158	18	16	-2	8
157	25	16	16	35
158	25	20	8	49
158	18	22	28	42
158	13	19	57	28
158	14	18	53	2
157	8	14	13	-37
158	5	17	6	-47
158	5	20	-25	-34
158	2	17	-33	-18
159	2	21	-11	3
157	0	21	51	0
158	-2	12	41	-5
158	-4	14	-7	-3
158	-2	18	15	-3
157	1	21	13	14
157	1	17	30	13
157	-5	18	19	11
158	-11	17	5	11
158	-10	15	2	11
158	-8	15	4	10
158	-2	17	0	10
158	10	21	-12	11
158	16	18	-3	10
157	22	20	13	15
158	30	22	43	9
157	21	22	21	10
157	1	27	-6	11
159	-7	25	-19	1
157	-4	15	-10	2
157	6	14	2	2
158	10	15	-2	6
158	15	17	0	9
157	18	18	-5	4
158	12	15	1	1
158	13	16	9	2
157	19	19	0	6
157	9	14	1	9
158	-3	13	24	4
158	4	15	36	-10
157	8	21	-13	-13
158	0	22	-6	-4
158	-3	13	37	-13
157	-8	19	-16	-9
158	-28	21	-16	-2
158	-34	20	0	-4
158	-32	18	9	0
158	-27	22	25	-9
158	-15	22	3	-2
158	-1	17	9	2
158	10	22	8	4
157	15	18	14	7
158	21	22	13	5
157	38	19	11	4
158	60	20	1	3
157	54	22	-28	-1
159	30	17	-41	-5
158	17	17	-26	-7
158	11	17	15	-4
158	8	15	65	3
158	19	19	87	6
158	23	19	57	-1
158	12	14	65	0
157	4	16	60	-2
158	-3	19	-29	-2
157	-8	19	-69	7
158	-24	12	-48	-3
158	-44	12	-10	-4
158	-33	15	-2	3
158	-10	18	4	-3
157	0	18	21	-5
158	3	19	1	4
158	5	19	30	6
157	4	13	30	6
157	3	19	2	10
158	14	24	-9	5
158	23	22	-2	8
157	12	15	22	8
158	8	16	27	7
158	8	18	33	6
157	0	17	24	7
158	-6	17	20	7
157	-2	13	19	-1
158	1	15	-2	-8
157	7	15	-43	-7
158	17	19	-55	-3
157	14	19	-19	-1
158	20	17	-6	7
157	22	20	10	9
158	11	19	34	4
157	2	17	41	4
157	10	20	13	1
157	13	19	-2	-2
158	5	21	3	4
157	3	22	-5	10
157	2	22	-9	4
158	3	17	1	1
158	1	15	15	-1
158	1	19	7	-13
157	0	19	16	-18
158	2	20	15	-17
158	4	24	7	-15
157	5	23	7	-9
157	5	19	3	5
157	4	14	6	9
157	1	16	4	-4
157	5	18	10	-6
158	5	15	14	-5
157	5	20	25	-4
158	11	18	22	-1
158	11	17	-5	3
158	7	21	-12	7
157	6	17	19	8
158	7	19	27	8
157	4	19	18	6
157	4	18	-3	5
158	4	23	-28	6
157	0	19	6	11
157	-5	19	18	13
158	-2	22	9	13
158	1	19	14	5
158	3	19	5	3
157	7	19	8	2
158	7	18	13	7
158	1	20	17	9
157	1	24	15	8
158	3	21	28	10
157	3	15	40	11
158	5	12	19	3
158	6	9	-16	-3
158	5	16	-48	-2
157	8	15	-17	-14
158	10	16	9	-8
157	11	18	7	1
157	12	17	17	-4
157	8	19	0	-2
157	7	21	-2	-3
158	7	18	-1	-1
158	6	18	0	3
157	7	19	-1	7
158	4	19	-7	9
158	3	19	-14	11
158	-4	17	-2	10
158	-15	15	24	11
158	-20	18	51	10
158	-8	14	37	-5
157	-1	13	-4	-13
157	3	14	19	-9
158	8	18	37	-5
157	13	23	53	5
157	26	25	53	13
158	24	22	-13	8
158	23	19	-64	11
157	27	19	-37	-7
157	23	18	3	-21
158	14	19	-7	-8
158	5	18	1	-6
158	-1	17	0	-6
157	2	17	5	-7
157	1	19	7	-4
158	1	19	7	-5
157	0	18	13	0
158	-2	16	6	6
158	0	16	6	6
158	-1	14	12	8
157	-1	14	26	-1
158	-1	15	3	0
158	-1	15	-11	3
158	1	18	6	0
158	0	18	15	0
158	4	19	16	-1
157	5	18	16	2
158	1	20	15	9
158	4	19	10	4
157	2	19	14	2
158	2	17	3	-1
158	3	18	1	2
157	5	18	7	4
157	3	15	10	5
158	5	17	3	7
157	5	18	0	1
157	5	18	16	3
158	5	17	17	4
157	9	18	16	7
158	4	17	24	7
158	1	17	24	0
158	-5	15	16	-2
158	-8	15	8	-6
157	1	18	-6	0
157	1	18	-2	-4
158	6	20	-6	-10
157	8	25	-11	-4
157	18	26	9	2
157	25	24	20	6
157	21	26	19	5
158	14	19	-3	9
157	8	11	-10	10
158	9	14	-6	0
158	4	17	-9	4
158	2	18	6	-5
158	3	14	-1	-2
158	4	13	2	-5
157	1	17	-19	-6
158	3	19	-42	3
158	3	15	-7	7
158	1	17	-15	7
158	4	19	5	2
158	4	20	14	2
157	3	21	15	2
157	4	19	40	4
158	8	15	44	13
157	4	15	60	9
158	3	17	47	-3
158	4	15	8	-7
158	5	15	6	-13
157	9	19	15	-11
157	8	20	-7	-3
158	6	19	-15	-2
157	4	19	13	9
158	4	19	34	9
158	7	19	17	7
158	5	21	7	6
158	4	19	-5	4
158	1	19	-28	0
158	3	21	-10	-8
157	3	17	6	-3
158	0	18	10	-2
157	1	21	13	1
158	0	17	15	1
158	1	15	15	1
157	4	18	4	2
157	5	16	8	2
157	2	17	2	7
157	7	19	-5	10
158	5	17	5	10
157	6	17	9	0
158	5	17	8	4
158	5	20	10	1
157	5	22	10	-4
157	3	20	13	6
158	4	17	23	8
157	7	17	21	7
158	9	18	-6	-1
158	8	20	-18	-2
158	3	17	-10	0
157	4	14	-8	2
158	1	17	6	-7
157	3	19	6	-6
157	8	19	4	1
159	8	19	13	-2
157	10	23	17	4
158	11	23	14	4
158	10	18	9	4
158	7	15	16	-1
158	5	16	30	0
158	7	17	30	1
158	6	17	2	3
157	7	24	-7	7
158	6	19	24	7
157	5	15	16	15
158	4	16	-14	10
157	1	17	-32	6
157	3	19	-16	0
157	1	18	5	-7
158	6	17	-2	-2
157	7	21	13	-8
158	5	24	19	-11
158	5	22	22	-5
157	4	19	12	1
158	4	13	2	0
157	4	14	2	3
157	5	15	-2	0
158	4	19	8	0
158	2	19	12	6
157	6	18	10	0
157	3	19	6	1
158	4	15	17	4
158	3	21	19	11
157	4	18	16	9
158	8	19	17	4
157	5	18	14	8
157	3	16	8	3
158	4	17	-19	-1
158	5	20	-10	0
158	6	21	21	8
157	7	17	19	16
157	5	17	20	17
158	8	19	19	7
157	7	21	15	-2
158	8	15	13	-2
158	8	16	5	-9
158	7	19	9	-13
158	4	18	0	-8
158	7	24	-22	-1
157	8	17	-1	-7
158	3	17	9	-11
158	4	18	9	-6
157	5	19	17	-11
157	3	22	-11	-22
157	3	19	-38	-8
157	1	17	-17	-5
157	1	18	8	-12
157	1	18	-2	-4
157	3	21	8	0
158	9	22	11	9
157	13	22	29	7
157	9	21	53	7
157	7	22	36	11
157	7	21	32	10
157	5	19	28	9
158	4	17	12	10
157	5	16	-1	7
158	4	15	2	0
157	5	15	6	1
157	7	14	-4	2
158	5	14	-3	0
158	5	17	-4	8
158	3	19	-18	12
158	0	18	-9	10
157	-9	14	6	9
158	-7	15	10	7
157	-1	15	8	9
157	3	14	20	4
157	5	16	38	-2
158	7	18	35	0
158	19	20	36	19
157	24	21	22	22
158	17	19	4	19
157	17	15	-7	23
157	15	13	-4	10
157	11	17	7	-3
158	9	18	-11	-12
157	4	21	-45	-10
157	2	24	-29	-24
157	4	24	-2	-41
158	4	27	-4	-40
157	6	22	10	-32
157	2	19	17	-21
158	1	17	16	-16
158	2	12	9	-5
158	0	15	5	7
157	1	19	17	8
157	0	15	7	10
158	1	15	-7	15
157	-1	14	3	16
157	1	14	25	16
158	0	17	22	10
158	0	15	-9	18
157	-3	19	-12	10
158	0	18	13	9
158	3	17	17	10
158	3	17	13	4
158	6	19	6	13
158	7	17	7	17
158	3	15	18	18
157	4	18	20	8
158	4	18	18	-6
158	8	21	9	-19
157	7	21	15	-39
158	7	19	20	-43
157	7	19	3	-28
158	5	21	-20	-7
158	5	17	-3	2
158	4	15	-3	4
157	3	18	-46	6
158	3	19	3	4
157	8	18	45	8
158	4	17	25	15
157	4	18	21	14
158	7	16	6	14
157	8	17	8	11
157	8	19	17	10
158	8	17	12	13
157	7	18	-1	16
158	5	18	-16	14
158	5	18	-7	11
158	6	22	-17	4
157	5	19	0	-6
158	3	15	30	-11
158	5	18	17	-2
158	5	19	12	8
158	3	18	12	11
158	7	18	24	13
157	8	18	60	13
157	7	19	62	19
158	7	21	29	16
158	5	18	1	16
157	4	19	-37	18
158	5	18	-16	4
158	5	18	8	-15
158	8	18	-8	-14
158	5	15	-1	-12
157	1	17	17	-21
158	4	16	26	-22
157	1	17	-3	-21
158	3	21	-24	-14
157	3	21	-2	-13
157	4	19	6	-12
158	4	21	-5	-6
157	3	20	16	-7
159	2	17	6	-10
158	1	22	-19	-9
159	9	26	-6	-5
158	11	22	8	-2
157	8	23	17	7
158	5	20	16	17
159	3	15	16	27
158	7	15	13	25
157	7	14	9	20
158	2	13	10	16
157	0	15	-9	6
157	-1	17	-16	5
157	-1	19	3	0
158	3	22	14	-3
158	8	20	20	-4
158	10	24	37	-5
157	8	19	33	-5
158	5	18	38	-2
157	6	24	32	-1
157	5	17	9	-4
158	4	13	-14	-9
157	5	15	-38	-4
157	7	18	-18	-7
158	6	21	-11	-6
158	5	17	-8	10
158	4	15	-15	12
158	4	17	-7	13
157	5	15	30	12
157	3	15	23	9
157	4	18	16	0
158	1	14	15	2
158	3	17	12	7
158	3	17	13	12
157	4	15	5	11
158	5	17	8	4
158	1	17	9	8
157	3	17	11	4
157	5	16	7	10
158	6	17	15	10
158	2	15	17	-3
158	4	19	11	-7
157	7	19	3	-4
157	3	17	-7	-4
158	-2	19	18	-4
157	-2	19	19	-2
158	-2	18	-11	6
158	-2	14	-10	9
158	3	15	3	-1
157	5	17	12	-5
158	18	22	14	-5
158	22	24	22	-9
157	18	23	22	-11
158	14	28	3	-9
157	11	23	3	-2
158	14	21	16	7
157	16	17	12	5
157	10	17	-7	-2
157	3	17	-2	4
157	5	17	-2	0
157	3	21	-27	-2
157	3	18	3	-1
158	0	17	8	1
158	2	19	-6	3
157	4	17	0	-4
158	2	19	-8	-5
158	3	18	1	0
157	0	14	2	6
157	0	17	13	13
158	0	19	23	15
158	3	17	49	24
158	6	17	81	31
158	7	17	66	24
158	4	14	50	14
158	2	15	8	2
158	3	22	-55	-9
157	3	18	-48	-32
157	-5	15	-9	-36
158	-16	14	0	-15
157	-13	14	12	-14
157	-3	17	-8	-18
158	3	17	-18	-14
158	9	18	2	-13
157	15	18	5	-8
158	22	14	8	-2
158	25	21	6	7
157	18	22	9	12
158	12	23	12	9
157	12	22	17	15
157	10	17	18	14
158	10	22	14	2
157	8	23	15	2
158	4	19	15	-1
158	5	19	4	1
157	1	21	-3	5
158	2	16	2	7
158	3	17	1	11
157	2	18	7	7
157	1	19	6	1
158	2	18	6	-3
158	1	17	5	-5
157	2	17	5	-7
157	1	17	16	-7
158	3	16	14	1
157	3	18	12	-6
157	3	21	8	-9
158	6	19	3	-3
157	5	17	14	7
157	3	15	21	13
157	1	14	27	9
158	3	16	16	7
157	7	18	0	3
158	2	15	-3	9
157	3	10	10	4
158	5	16	27	-2
157	2	21	-9	8
158	1	19	-27	4
157	6	18	-7	4
157	8	16	-12	1
157	2	20	-5	-2
158	4	20	4	3
157	5	21	10	3
158	7	23	13	-1
158	5	18	6	0
157	5	18	7	6
158	4	17	12	4
157	-3	19	20	0
157	-6	19	22	-4
158	-7	17	13	-1
158	-1	17	0	4
158	5	17	-14	6
158	4	19	1	15
157	14	19	52	21
157	22	21	54	14
158	25	24	-13	11
157	15	29	-47	1
157	13	27	-6	-4
157	11	22	23	4
158	7	24	7	-2
157	6	19	-6	-20
157	4	21	-22	-27
157	5	18	-9	-28
158	3	16	5	-25
158	3	15	2	-22
158	3	15	0	-6
157	4	16	-1	2
158	3	18	10	-1
157	4	15	8	3
157	0	14	6	6
157	0	16	9	14
158	0	11	25	9
158	3	16	53	5
157	7	21	53	9
158	8	20	26	10
158	5	17	29	15
158	4	17	24	12
157	4	18	9	9
158	3	16	13	2
158	5	19	12	-8
158	3	19	20	-13
157	4	18	13	-13
158	4	13	-15	-2
158	3	13	-34	9
157	3	17	-10	1
158	3	18	0	0
158	5	16	3	1
157	2	14	16	4
157	2	16	10	15
158	5	22	10	17
158	7	23	13	11
158	10	19	13	10
158	5	18	1	12
158	14	22	2	10
157	16	25	4	1
158	7	24	8	1
157	5	19	16	-5
158	5	19	19	-1
157	4	17	10	2
157	3	17	-15	-8
157	1	19	-9	-10
158	1	17	20	-10
157	4	17	5	-8
158	3	19	-28	-4
157	5	19	-22	-5
158	5	19	3	-5
157	4	20	0	6
157	6	20	-3	1
157	5	16	-6	3
158	7	15	-16	4
157	5	13	5	0
157	5	15	18	6
158	4	15	17	2
158	1	14	18	4
157	1	17	27	11
158	1	21	29	7
158	3	21	21	15
157	4	19	6	22
157	7	17	-13	21
158	9	18	-14	20
158	8	14	13	14
158	7	13	37	-1
158	7	17	37	-20
158	4	21	1	-9
158	6	21	-47	12
157	8	16	-6	9
158	5	19	55	-2
158	12	24	31	-6
158	8	22	-2	-14
157	7	19	-18	-19
158	5	16	-4	-19
158	3	15	14	-7
157	4	14	14	-1
158	5	14	19	-7
157	6	15	5	-1
157	10	19	-4	7
157	12	17	2	8
157	4	17	3	6
157	1	15	-2	4
157	-1	17	27	4
158	-2	19	35	-1
157	1	18	14	-10
158	5	19	23	-9
158	7	21	29	-8
158	7	21	38	-6
158	4	21	40	3
157	1	15	6	2
157	3	17	-18	2
158	3	19	-12	0
158	4	18	-7	4
158	3	10	-9	4
157	0	14	-30	0
158	-4	23	-15	0
157	-6	20	-2	3
158	0	22	-5	2
157	4	18	12	9
158	8	17	11	9
158	7	21	20	0
157	12	19	16	0
158	20	22	-9	-4
158	17	24	-16	-4
158	13	22	10	6
157	15	22	4	16
157	14	21	-2	16
157	8	22	12	12
157	4	18	6	15
158	3	21	14	5
158	1	22	8	-1
158	3	18	14	-5
157	3	16	14	-10
158	3	16	19	-6
157	3	15	26	-3
157	4	16	16	3
157	2	21	11	10
158	4	16	6	4
157	1	17	4	-2
158	-2	13	2	6
157	3	17	8	7
158	3	19	15	0
158	5	17	14	3
158	4	19	13	7
158	2	18	0	7
157	0	13	0	7
158	-1	15	17	4
157	-1	14	34	6
157	-3	8	20	-2
157	1	17	-26	-3
158	5	23	-35	-8
157	1	18	0	-20
157	8	19	9	-16
158	16	19	16	-4
158	12	21	18	0
157	7	17	7	-6
158	8	13	-8	3
158	13	15	-15	4
157	14	17	8	3
157	7	18	-1	12
158	7	19	0	14
158	8	19	10	13
157	7	19	5	0
157	4	17	23	-12
157	2	15	30	-17
157	1	16	40	-15
157	3	17	35	8
157	2	15	26	14
157	5	15	21	8
157	6	18	2	7
158	5	22	-31	-1
157	7	22	-20	3
158	5	17	35	8
158	7	17	10	7
158	7	26	-19	1
158	4	23	-16	-1
158	5	18	-13	0
158	8	22	-3	-10
157	5	23	-2	-11
157	6	24	1	-13
157	7	22	-9	-13
158	5	14	-7	-2
158	3	15	-2	-2
157	1	19	8	-3
157	5	16	19	1
158	4	20	25	-3
158	4	22	52	9
157	5	18	62	18
158	5	18	35	14
157	5	16	-15	12
158	5	16	-6	-5
157	6	17	6	-23
157	5	15	-14	-10
158	6	15	-1	6
157	0	19	2	7
157	-11	16	10	7
158	-8	17	10	13
157	-1	17	11	15
157	2	17	28	11
157	3	17	17	15
157	11	21	5	18
158	20	23	5	15
158	23	24	5	7
158	17	23	-13	-2
157	10	22	-9	-18
158	13	23	-2	-27
158	12	13	-15	-14
157	7	17	-16	-19
158	1	17	-5	-15
158	2	15	21	5
157	3	13	25	6
157	1	14	10	3
157	5	19	3	-2
158	3	21	-2	0
158	0	18	1	-3
158	3	17	-2	0
158	4	19	4	-3
158	5	16	14	-2
158	6	19	6	4
157	5	17	18	-2
158	5	15	15	-1
158	3	19	10	6
157	3	18	21	13
157	3	16	22	17
158	2	17	33	21
158	4	16	29	26
157	1	17	-8	29
157	3	19	-9	24
158	2	17	9	10
157	4	17	-1	3
157	11	19	7	-10
158	16	20	6	-19
157	14	16	8	-26
157	4	16	19	-30
157	2	18	23	-12
157	0	17	28	-1
157	-1	17	4	-1
157	0	17	-33	4
158	6	21	-26	10
158	7	22	17	9
157	4	19	0	11
158	5	21	2	13
157	4	21	0	13
158	3	21	-11	23
159	3	21	12	29
157	3	19	9	25
158	7	18	26	15
158	5	17	25	-1
157	7	14	16	-12
158	7	13	10	-22
158	8	17	0	-40
157	7	23	-3	-44
157	9	22	-1	-32
158	9	19	4	-21
157	10	21	1	-13
157	8	18	-7	-5
157	5	18	-4	-1
158	3	19	20	3
157	1	19	45	6
158	1	19	39	17
157	0	20	18	19
157	5	19	20	20
157	8	18	1	23
157	3	16	1	29
159	3	15	11	32
158	3	17	-10	31
158	1	18	-3	29
157	1	13	13	23
158	7	15	25	8
158	10	20	27	-16
158	7	14	28	-34
158	5	14	29	-44
158	3	14	2	-55
157	5	15	-37	-53
157	3	19	-55	-32
158	2	19	-43	-16
157	2	22	-34	-7
158	5	22	-26	7
157	5	21	1	12
157	3	17	8	18
157	7	14	36	27
158	1	12	105	21
158	3	14	107	18
158	6	20	22	14
157	3	17	-5	0
158	1	23	-25	1
158	5	22	-23	4
157	7	21	9	9
157	5	21	1	7
157	4	17	13	10
157	3	19	8	25
158	4	14	2	26
158	1	9	-1	25
158	3	11	5	0
157	5	23	-5	-19
157	7	22	-14	-33
157	7	22	0	-34
158	7	24	23	-9
158	8	21	37	-7
157	7	21	-24	0
158	5	17	-25	2
157	3	22	8	7
157	1	23	0	14
157	1	21	10	15
158	5	22	17	20
158	9	15	24	15
157	7	14	8	16
157	9	16	-11	3
157	10	20	-15	-1
158	7	19	-4	-2
158	3	18	7	-5
157	5	19	5	5
157	7	18	15	4
157	3	18	21	0
158	1	16	16	1
158	3	17	2	-1
157	1	21	-22	-1
158	9	22	-41	3
157	12	24	-13	0
157	5	20	4	-4
158	0	19	28	-5
157	-5	18	70	-11
158	-6	12	61	-13
158	-3	13	44	-10
157	3	15	45	-6
158	8	17	35	3
158	5	17	16	9
157	14	19	-9	10
158	21	19	-12	15
157	20	22	4	14
158	13	24	-2	1
158	13	23	4	-8
158	10	21	12	-7
158	5	17	-13	-5
157	1	15	-9	-7
159	1	18	0	-4
158	3	17	-16	7
158	3	17	-9	6
158	-1	16	-5	7
158	1	15	-2	-1
158	1	19	6	0
157	-1	20	4	3
157	3	19	14	2
157	1	19	26	3
158	-3	17	19	7
158	-1	17	16	12
157	2	17	11	14
157	5	15	-2	16
158	4	17	1	20
157	4	15	5	18
157	5	18	23	15
158	7	20	33	12
157	5	17	39	4
157	7	15	61	-1
157	7	14	58	-12
157	7	15	10	-22
157	7	21	-74	-25
157	7	23	-58	-17
158	5	17	-3	-3
158	5	18	-31	0
158	5	18	-14	4
158	7	18	-3	9
158	9	19	-6	1
158	4	19	4	-8
157	4	17	2	-19
158	3	17	-1	-17
157	6	17	-19	-5
158	8	19	5	-15
157	12	21	42	-21
158	7	15	35	-29
158	3	16	20	-27
158	4	17	21	0
158	-1	15	17	8
158	0	20	27	13
158	4	24	40	14
157	6	21	34	15
157	6	19	11	34
157	5	12	-22	46
157	0	10	-57	37
158	0	15	-89	19
157	7	15	-91	10
158	6	19	-61	3
158	8	19	20	-10
158	7	17	107	-24
158	8	19	134	-31
157	7	21	104	-28
158	12	22	31	-19
157	11	21	16	-3
158	7	21	11	1
158	7	19	-5	9
158	8	21	-9	14
157	10	21	-16	22
158	8	21	6	28
157	8	20	24	25
158	3	15	59	16
158	1	14	63	4
157	3	16	-1	1
158	4	18	-35	9
158	4	19	0	21
158	4	17	19	8
157	2	13	7	4
157	5	19	-19	-3
158	4	21	-35	-11
158	4	16	-4	-15
158	4	19	-16	-14
157	2	21	-7	2
158	-2	18	7	-2
157	-9	17	8	1
158	-6	15	27	-1
157	-4	15	29	-12
157	4	22	4	-17
158	9	24	-19	-26
157	12	22	-3	-13
158	20	20	-14	2
157	17	22	-19	1
158	12	24	-15	-2
158	5	17	-15	2
158	6	17	8	15
157	5	13	32	12
158	4	16	29	4
158	4	19	-7	9
158	4	21	-4	18
159	2	15	5	18
158	3	17	5	14
158	3	18	10	1
157	1	19	-3	-2
157	1	18	11	-2
157	-3	18	13	-6
157	1	24	23	2
158	1	23	44	-1
158	1	17	-6	-4
158	0	19	-7	-6
157	-3	15	13	-7
157	-1	13	16	-8
157	1	18	28	-8
158	5	18	5	2
158	6	15	9	9
157	8	17	9	9
158	11	17	10	6
159	10	14	4	7
157	13	15	-8	7
158	14	13	-12	13
158	10	14	-17	15
158	5	17	3	7
158	3	15	4	4
157	5	19	16	0
157	3	18	46	-8
157	2	18	59	-17
157	1	20	30	-17
158	3	18	8	2
157	3	19	10	2
158	3	19	0	1
158	5	19	3	2
157	11	22	-12	-2
157	19	26	-17	-4
158	15	25	-6	-7
157	7	22	17	1
157	5	18	52	15
158	5	14	36	23
157	8	19	2	13
158	13	22	-22	13
157	14	19	-9	8
158	10	21	1	-6
157	3	17	-1	3
159	2	17	2	0
158	-4	21	-12	-3
159	-1	18	8	-6
157	2	17	24	-15
158	4	18	7	-19
158	1	21	-7	-34
157	1	23	-18	-30
158	1	22	-20	1
157	1	20	-4	14
158	7	15	10	19
157	5	13	34	15
158	3	15	60	11
158	1	15	55	25
157	1	11	21	25
157	2	14	6	17
158	3	17	28	0
157	4	17	11	-18
158	4	21	4	-22
157	3	22	26	-28
158	6	17	19	-26
158	5	6	-11	-17
159	2	8	-39	-2
158	3	15	-43	4
158	7	17	-27	3
157	3	17	-26	7
159	4	17	-23	9
157	5	19	-1	11
158	10	21	2	5
158	9	19	14	3
157	8	21	25	14
158	10	18	23	13
157	8	21	26	17
158	5	22	21	11
157	5	20	15	4
158	3	21	3	3
157	5	18	-39	6
157	8	21	-54	6
157	4	21	-6	-4
157	3	21	15	-4
157	3	18	36	-8
158	5	13	35	-1
157	8	16	-23	11
157	9	23	-16	8
158	7	20	1	9
157	5	19	-3	13
157	3	20	13	9
157	6	22	6	8
158	5	21	19	0
158	4	21	9	-5
158	5	23	23	0
158	3	18	84	-8
158	4	17	71	-12
158	1	15	44	-11
157	3	15	25	-6
158	7	19	1	4
157	6	18	8	3
157	8	17	1	2
158	5	16	-13	16
158	8	20	-8	16
158	9	24	1	10
157	8	19	12	9
158	3	11	18	-4
157	1	14	22	-8
158	2	16	26	-6
158	1	17	14	-22
157	7	23	6	-46
158	8	14	3	-23
157	4	8	14	-6
157	-6	11	15	-9
157	-8	19	4	3
157	-3	22	-5	3
157	1	17	-10	2
157	5	15	0	2
157	8	19	-11	10
158	10	19	-3	7
158	18	20	15	5
158	18	28	13	6
158	14	26	10	10
157	8	23	-7	12
158	9	17	-13	10
157	10	16	2	11
158	3	19	13	6
158	2	15	-6	3
158	4	19	-33	-2
158	4	20	-17	2
159	5	22	16	8
158	8	20	13	13
158	5	15	19	9
158	7	15	3	2
157	7	18	10	2
157	4	19	22	6
157	4	15	0	11
158	1	17	-8	7
157	3	16	-30	15
158	1	17	10	17
158	-16	12	14	14
158	-20	12	-52	9
158	-12	15	-29	5
157	-4	16	37	0
157	8	21	5	-1
158	11	23	27	1
157	12	22	116	-7
158	27	23	79	-9
157	43	25	27	-13
158	33	26	15	-14
157	11	22	19	-15
158	8	23	9	-7
157	10	21	-16	-3
158	3	19	-9	0
158	4	17	-6	12
158	2	15	0	13
158	3	15	5	9
158	-2	16	7	11
159	0	17	6	6
158	1	19	6	9
158	0	19	1	9
157	4	17	-1	2
158	0	13	-8	-4
157	0	13	-9	-22
158	-1	17	4	-25
157	0	13	5	-10
158	2	13	10	-3
158	3	9	6	-4
157	2	14	-11	2
158	-4	18	-15	4
158	-7	19	-2	5
158	-5	17	-6	5
157	-4	14	-12	4
158	1	19	-5	1
158	5	19	8	-2
158	8	22	26	2
157	17	21	33	5
158	19	24	30	10
157	16	24	34	3
157	11	17	16	-4
157	14	21	-2	4
158	12	24	2	5
158	7	23	5	0
158	5	19	24	3
157	1	21	33	2
158	3	17	27	2
158	4	17	-3	8
158	5	20	-44	15
158	3	17	-30	20
158	1	19	-10	24
157	4	17	-11	14
158	2	13	20	-14
157	1	17	17	-29
158	3	19	15	-36
158	1	15	32	-30
158	3	16	23	-7
158	1	15	18	-2
158	5	14	13	-2
157	5	14	10	-6
158	3	13	-11	-10
158	3	19	-3	-10
157	6	23	25	-5
158	5	22	21	2
158	5	18	19	7
157	4	22	-11	15
158	9	21	-9	13
157	7	19	16	6
158	4	19	-12	3
157	4	17	-7	3
158	2	19	9	8
158	4	19	14	6
157	3	19	24	4
157	4	19	16	7
157	6	17	14	6
158	8	17	14	9
157	8	18	17	10
158	6	17	3	3
157	6	15	-6	5
159	7	18	0	3
157	9	19	16	2
158	5	19	18	1
158	9	19	-5	5
157	14	17	4	5
158	10	18	10	6
158	5	18	2	8
157	1	18	15	-2
158	-2	16	28	6
157	-2	14	14	1
157	1	19	-4	3
157	3	22	6	8
158	4	17	0	10
157	3	14	-4	14
157	0	17	13	3
157	0	17	18	1
158	5	17	17	-2
157	8	17	10	-2
158	7	21	2	-6
158	7	23	5	-21
157	3	16	5	-19
158	5	15	-7	-13
158	3	16	-2	-10
157	4	13	12	-5
158	3	18	-7	-4
158	0	17	-50	-4
157	-2	19	-55	-1
158	1	20	-18	-3
158	5	17	1	4
157	5	17	28	0
158	16	17	52	8
157	14	16	32	10
158	5	21	2	4
158	11	17	7	3
158	17	15	18	-1
157	14	24	20	2
157	10	25	29	4
157	9	22	20	12
158	4	19	16	10
157	4	17	18	9
157	6	17	16	3
158	4	19	24	-1
158	3	15	15	8
158	1	17	2	9
158	3	19	8	9
158	-3	13	10	13
158	-9	15	5	9
158	-9	14	-7	14
158	-16	16	-38	15
157	-14	16	-22	4
158	-6	13	6	-4
157	5	16	4	-4
158	24	18	18	0
157	32	22	18	-3
157	28	23	16	-1
157	28	24	12	-7
157	30	22	17	-8
158	20	24	18	-11
158	11	25	15	-16
158	8	18	9	-12
158	5	15	-14	-29
158	4	15	-11	-26
158	1	14	-1	-9
158	-2	18	-4	-2
158	-2	19	-8	3
157	-3	17	-22	4
158	1	23	-8	2
157	0	22	25	4
158	-2	21	16	7
157	2	24	10	14
158	1	22	19	19
158	-2	21	23	16
158	-1	17	36	23
157	1	19	15	13
157	2	22	0	1
158	2	18	-3	-2
158	1	18	12	-8
157	1	18	41	-13
158	-1	15	28	-10
158	0	15	0	-3
158	4	17	-23	-1
158	4	15	0	-1
158	2	14	33	2
157	1	15	14	8
157	2	14	8	13
157	2	15	9	10
158	4	15	23	-1
157	5	17	55	-8
158	8	19	19	-1
158	8	19	-13	6
157	11	22	6	8
158	10	19	-7	13
157	9	21	-6	7
158	6	22	-3	6
158	7	18	-9	7
158	3	19	-2	8
158	3	18	6	9
158	4	21	13	16
158	7	19	2	13
157	8	16	-17	6
157	7	18	-28	-4
157	7	19	9	-6
158	5	18	18	-3
157	7	14	-8	-7
158	5	16	-16	-4
157	7	18	-4	-14
158	7	15	13	-15
157	8	16	12	-11
158	8	19	35	-6
158	5	17	37	-3
158	6	22	32	2
158	4	19	37	13
157	7	19	18	9
157	6	19	0	6
157	6	15	1	2
158	7	17	-5	4
157	7	19	-6	-1
158	7	18	7	-1
158	8	18	26	2
158	8	21	39	0
158	5	15	34	2
157	3	15	27	3
157	7	21	-8	10
158	8	23	-12	13
157	3	18	-2	11
158	4	15	-43	-1
157	1	19	-34	-5
158	3	23	-16	-7
158	4	19	-25	-16
158	4	17	-22	-9
158	7	22	-10	-2
157	6	21	26	-6
158	3	22	28	-5
157	-1	14	16	-1
158	3	16	35	-6
158	2	18	34	-5
158	5	18	-8	-4
158	8	25	-9	2
158	8	22	12	10
157	4	18	12	13
158	7	15	11	12
158	2	15	9	15
158	3	16	10	25
157	3	15	8	25
158	2	15	5	15
158	1	17	14	-2
158	3	16	23	-16
158	5	18	15	-27
157	-1	19	7	-24
157	2	14	-7	-5
157	10	15	-18	-1
157	11	15	-6	-7
158	4	17	-7	-4
157	1	17	6	-8
158	8	19	13	-10
158	11	26	4	-1
158	14	23	24	4
158	10	26	17	5
158	1	24	27	3
158	-1	20	15	0
158	1	18	-21	4
158	5	14	-5	3
158	4	14	29	3
158	6	14	22	13
158	3	15	8	10
158	3	15	16	18
158	4	17	23	9
158	6	17	19	6
158	6	15	2	6
157	4	11	0	7
157	3	15	0	4
157	2	14	6	6
158	1	10	6	16
157	3	14	11	2
158	5	19	16	-1
157	3	17	6	-3
158	1	17	3	-8
158	3	18	3	-5
158	1	15	8	-10
158	1	17	6	-11
158	5	19	2	-7
158	4	21	0	2
158	5	19	5	4
158	5	22	2	6
157	8	23	5	7
157	7	22	22	6
158	3	19	22	4
157	5	18	6	4
158	3	20	-27	6
157	4	19	-14	0
158	4	22	16	0
157	1	23	16	0
158	-1	18	57	-4
157	-4	17	51	0
158	-1	18	10	-1
157	-2	19	21	-3
157	4	19	-3	4
159	12	18	-18	-5
157	12	18	-10	-11
158	21	21	-3	1
157	24	20	8	6
158	12	19	16	7
157	9	17	15	9
157	13	16	-6	8
157	16	20	4	2
158	12	20	3	0
157	8	20	-1	8
158	5	21	5	3
157	1	19	-8	2
158	3	23	-4	1
157	3	22	10	2
157	0	17	18	7
157	-1	17	11	3
158	-2	16	-4	-5
158	-2	17	-20	0
157	1	16	-8	5
158	0	19	34	2
158	3	21	33	1
157	3	19	22	11
158	1	21	18	19
158	3	16	16	18
158	5	15	14	14
159	4	17	-25	7
157	5	19	-20	4
157	5	18	-2	2
158	8	20	-19	-2
158	5	18	-14	-5
158	3	18	-16	-12
157	5	19	-5	-19
157	6	21	12	-34
157	6	17	32	-41
158	7	16	26	-40
158	5	17	12	-31
158	4	17	9	-15
157	4	17	1	-9
157	4	16	5	-4
158	8	16	-6	9
158	9	16	6	7
157	8	17	12	10
158	5	16	11	14
158	5	17	17	15
157	7	16	10	23
158	5	16	8	16
159	5	20	3	12
158	7	18	10	13
157	6	20	15	7
158	3	19	17	11
158	3	20	13	10
158	5	18	17	9
157	9	19	28	13
158	6	21	33	17
158	5	21	35	15
157	9	22	9	13
157	9	21	-16	15
157	7	17	-15	13
157	5	12	-10	10
158	5	22	-4	9
157	5	25	1	2
158	5	21	-20	-9
158	4	22	-17	-13
157	2	16	23	-16
158	5	14	56	-15
158	9	16	56	-11
157	10	19	36	-14
156	5	22	33	-14
157	4	19	23	3
157	6	16	19	9
158	7	11	-5	9
158	8	11	-19	9
157	5	13	-16	-1
157	4	18	-33	-4
158	4	22	-44	1
158	2	18	-49	6
158	4	21	-8	3
157	4	19	46	-4
157	4	17	51	-11
157	-1	19	24	-22
158	0	21	9	-12
158	1	19	33	0
157	0	18	9	10
158	1	14	-2	14
157	-3	11	4	14
157	-6	12	-13	13
158	-6	13	-20	4
157	1	19	-5	1
158	13	24	25	-1
157	13	18	28	-1
158	8	21	33	3
158	17	21	22	0
158	23	22	21	0
158	21	24	21	7
158	12	22	-9	2
158	9	25	-14	7
157	7	21	-4	8
157	4	19	1	12
157	1	18	-13	11
158	-1	16	-4	9
157	0	16	0	-1
158	1	16	-8	-4
158	0	14	3	2
158	0	17	3	-5
158	1	19	8	-4
158	0	17	4	-10
157	-1	16	7	-13
158	0	17	6	-9
157	-1	14	16	-14
157	1	17	22	-8
156	3	23	10	0
157	5	21	13	4
157	7	19	11	15
158	5	19	6	25
158	5	17	5	32
158	5	16	16	28
158	5	14	33	26
158	5	14	35	19
157	4	13	14	0
158	3	11	-3	-19
157	5	11	-8	-39
157	8	21	-15	-49
158	7	25	29	-41
158	4	21	44	-18
158	5	19	4	-13
157	4	19	-3	-12
157	5	19	2	0
157	5	15	3	4
158	7	16	1	7
158	7	19	1	4
158	8	19	-3	4
157	5	17	1	4
157	5	19	4	9
157	8	19	4	12
158	7	19	8	8
158	5	20	4	9
157	5	22	0	11
157	4	23	1	11
157	4	17	4	11
158	5	18	3	11
157	7	19	4	14
157	6	18	5	10
158	3	21	7	13
157	5	22	8	11
157	5	19	19	8
157	4	19	30	2
158	7	24	22	-3
157	5	23	4	-3
158	4	21	21	-3
157	5	13	19	0
158	5	11	-11	2
157	1	15	3	-3
158	3	16	-11	-5
158	7	17	-10	-6
158	4	17	4	-9
158	4	11	-6	3
157	7	15	11	11
157	4	16	-1	13
157	7	19	4	8
157	7	21	21	-2
157	5	15	2	4
158	5	15	-9	4
158	4	17	-19	0
158	4	21	1	-1
158	4	23	15	-2
157	7	19	19	0
158	8	20	36	7
158	8	22	24	7
157	6	24	0	-2
158	3	23	-7	-10
157	4	23	5	-24
157	4	20	17	-32
158	5	19	21	-24
157	2	19	30	-15
158	0	15	21	0
157	4	17	12	10
158	5	17	19	7
157	4	15	-8	9
157	6	17	-45	6
157	3	19	-38	6
157	2	17	-16	10
158	3	17	-3	9
157	5	16	5	4
158	7	15	14	9
158	7	17	52	2
158	10	12	74	2
157	9	10	28	9
158	6	14	3	3
157	7	13	17	6
157	3	15	-1	11
157	0	17	0	9
158	3	17	8	8
158	5	18	19	10
158	8	23	43	13
158	13	25	29	6
158	15	27	-3	3
157	6	24	-31	6
158	5	21	-8	4
157	4	22	10	9
157	6	19	6	6
158	5	14	-6	10
157	3	13	-29	10
159	7	17	-2	-9
158	4	19	6	-8
157	5	21	-10	-12
158	3	18	8	-13
157	3	18	14	-4
158	4	17	6	-1
158	4	17	4	7
158	4	17	12	4
158	3	19	5	6
157	4	15	-1	3
158	1	15	13	-7
158	1	15	14	-21
157	1	14	12	-28
157	2	15	12	-21
158	5	17	6	-9
158	7	22	24	1
157	7	22	55	4
157	5	19	32	5
158	5	22	9	2
157	4	20	11	0
157	4	23	8	0
158	4	24	24	-12
158	3	23	19	-14
157	4	21	-5	-4
157	4	17	-15	6
157	5	12	-22	12
158	3	10	-31	12
157	1	11	-38	2
158	4	16	-17	2
158	5	19	-11	12
157	5	19	-16	11
157	7	18	9	13
157	6	18	13	15
157	3	17	-5	11
158	4	15	-3	-6
157	4	18	21	-10
158	3	18	17	-6
158	9	17	19	-6
158	7	19	34	0
158	3	14	23	-4
157	5	17	23	2
157	7	19	25	4
158	8	19	28	4
157	11	21	-4	8
158	11	24	-10	10
157	8	21	25	12
157	4	19	5	9
158	5	19	-3	6
158	4	19	3	4
157	5	19	-1	7
158	4	17	6	6
157	3	21	13	12
157	1	17	28	12
158	5	17	46	6
158	2	16	35	4
158	2	13	5	9
158	5	14	-28	0
157	2	17	-39	-2
158	1	18	-6	2
157	0	16	21	-6
158	1	14	35	-7
158	3	14	27	-14
158	5	20	-7	-9
157	5	22	-10	-3
158	7	17	9	-4
157	8	19	24	0
159	4	17	25	2
158	5	14	-7	6
157	6	19	-33	6
158	5	15	-1	0
158	8	16	9	0
158	7	21	5	0
158	4	17	22	2
157	7	20	13	5
157	4	24	10	6
157	4	21	13	11
158	5	17	7	11
157	2	18	-4	13
158	4	18	-11	14
158	4	19	1	14
158	5	19	20	11
157	9	22	3	0
157	7	19	3	-5
158	5	19	17	-7
158	5	22	-6	-5
158	6	21	34	-2
157	7	17	72	-6
158	3	12	51	-24
158	1	10	5	-43
158	2	17	-32	-33
158	4	20	-23	-15
158	3	15	-9	-15
158	3	16	-5	-9
158	5	15	-7	-5
158	5	13	1	1
158	4	21	4	13
158	2	22	6	17
158	3	19	2	14
158	3	19	-16	10
158	1	17	-1	12
158	5	22	15	12
157	17	25	14	9
157	23	23	17	10
157	13	22	29	12
158	7	21	31	1
157	10	22	25	-1
158	7	18	30	-2
157	6	18	25	-9
158	1	18	21	-1
158	1	17	7	1
157	2	17	-24	-1
158	2	20	-16	-4
157	4	19	-12	-4
159	2	18	-46	2
158	2	17	-45	6
158	1	18	-6	7
157	1	16	7	10
158	3	19	1	9
158	5	21	6	9
157	7	19	13	11
158	4	21	19	9
159	1	17	24	10
158	3	15	24	9
158	2	17	10	11
158	5	17	16	7
158	5	11	32	3
157	5	12	13	1
158	4	13	-18	1
157	7	14	-24	0
157	5	18	10	-7
157	6	17	16	-2
157	8	17	7	0
157	8	18	20	-5
158	6	17	12	-2
157	9	15	13	0
157	10	18	10	4
158	8	17	12	0
157	5	18	13	-8
158	5	18	12	-6
158	6	16	12	3
158	2	19	8	2
157	3	15	19	2
157	7	15	18	0
158	5	17	16	-2
157	6	17	21	-1
157	9	18	24	5
157	1	17	24	1
157	-1	17	16	3
158	-2	19	6	-2
158	-3	20	-8	-3
158	0	22	-5	-4
157	3	23	0	0
157	7	21	-10	14
158	9	22	-6	3
157	10	27	-15	-2
158	5	19	-25	-7
158	6	16	-7	-2
157	7	15	-6	4
157	6	13	33	-2
158	5	18	80	-2
157	5	19	25	5
157	5	21	2	3
157	4	20	7	3
158	8	17	-14	7
158	4	18	-5	4
158	5	19	-2	-2
157	3	17	10	-6
158	5	17	17	-9
158	6	17	21	-8
158	4	20	15	-5
158	9	21	8	-3
157	8	18	8	4
158	7	19	9	8
157	7	20	5	8
157	5	19	1	7
157	5	22	3	6
157	7	22	0	7
157	6	19	5	7
158	7	18	3	1
157	7	17	5	-2
157	4	16	6	-2
159	4	17	3	-5
157	4	16	4	1
157	3	14	-5	4
158	1	17	-6	5
157	1	18	0	4
158	5	15	5	2
157	4	14	3	-1
158	3	17	1	-6
158	6	21	4	-3
157	6	22	10	6
158	4	16	23	4
158	2	15	26	12
157	4	18	16	25
157	7	18	-2	28
158	5	18	1	25
158	3	16	24	13
158	2	17	13	7
157	2	18	-9	0
157	4	17	-13	-23
157	4	21	-21	-32
157	2	23	-15	-43
158	5	15	9	-41
158	3	17	17	-16
157	6	21	17	-9
158	5	18	22	-13
158	5	18	33	-4
157	8	18	41	-6
158	7	19	19	2
157	8	21	-30	8
157	8	21	-29	7
158	7	18	14	17
157	8	17	15	18
158	7	16	13	14
157	5	17	13	17
157	4	16	13	21
158	-1	12	21	21
158	1	14	19	18
158	1	17	2	19
157	2	18	-20	16
158	7	21	18	15
158	8	18	37	13
157	8	19	6	11
157	4	19	15	10
157	12	21	6	4
157	17	25	15	0
158	8	25	32	-5
159	4	22	19	-10
157	4	23	-4	-15
157	3	19	-31	-19
157	4	14	-12	-26
158	4	17	-10	-24
158	6	19	8	-11
157	5	19	36	-6
158	2	23	18	-2
157	3	17	4	1
158	2	15	4	2
158	5	18	6	6
158	5	16	2	7
158	3	18	-1	2
157	3	15	-3	0
158	3	15	5	4
157	4	19	3	-1
159	3	17	7	-1
158	2	19	11	2
157	5	20	8	6
157	3	16	2	10
157	2	15	-11	4
158	3	16	-2	-2
157	3	18	4	-1
158	5	17	18	3
158	3	14	30	4
157	2	15	12	4
157	5	14	3	4
157	8	16	5	11
158	8	19	6	4
158	5	18	6	2
157	5	17	13	7
158	7	18	19	9
157	8	19	27	15
157	5	15	42	14
157	6	17	29	10
158	4	21	-1	9
158	9	22	-9	6
158	5	21	-1	6
157	0	16	-6	12
158	3	16	-1	-5
157	5	22	13	-22
157	7	19	6	-34
158	6	19	-13	-24
158	6	22	-18	-4
158	5	17	15	-6
158	4	22	10	-4
158	5	18	-3	-4
158	6	17	6	-5
158	8	19	-5	-4
157	6	21	-3	-2
158	5	21	2	-1
158	3	19	16	4
158	2	17	26	7
157	3	15	10	4
158	4	20	-13	15
157	7	18	-2	11
157	1	15	25	13
158	4	17	-2	10
158	10	15	3	2
157	14	17	2	2
157	7	18	-10	-4
158	4	9	9	-4
157	0	11	-14	-11
157	-2	15	-7	-17
158	1	16	12	-2
157	4	18	19	0
157	9	17	25	-2
158	8	22	19	3
158	8	22	22	3
158	4	18	17	7
157	4	19	16	9
158	3	22	13	11
157	4	18	16	12
157	5	18	21	15
158	8	17	20	10
157	7	19	21	-2
157	4	18	17	-7
157	3	17	-1	6
157	4	18	-12	8
158	3	18	-7	-3
157	6	19	2	12
157	6	17	0	15
157	4	15	-6	9
157	8	15	-11	7
158	6	17	-16	-6
158	4	19	-10	-8
158	7	21	-11	-2
158	7	24	4	-1
157	5	20	55	-2
158	4	18	63	-5
156	8	22	36	-12
158	7	19	21	-12
157	7	19	2	-9
158	9	19	-12	-8
157	5	17	0	-3
158	5	17	-6	2
157	5	16	-12	4
157	7	18	-10	10
157	7	19	1	7
157	3	15	21	9
158	0	13	17	9
158	1	17	15	4
157	3	19	12	4
157	2	20	15	-1
158	3	18	14	-3
157	3	15	-2	-2
157	5	19	-22	7
157	3	17	-5	6
157	4	19	7	4
157	5	17	2	2
158	3	15	14	1
157	4	16	14	2
158	6	17	37	-1
157	5	17	35	0
157	5	19	-4	4
158	5	21	-27	3
157	3	19	-22	-2
158	4	18	-14	0
158	4	21	10	5
157	3	18	32	6
157	4	18	33	3
157	7	20	5	0
157	5	19	-22	5
158	3	21	15	1
157	2	18	17	7
157	3	20	12	14
159	5	23	1	7
158	4	16	-6	2
157	11	19	5	1
158	12	20	10	3
157	9	17	29	3
158	5	16	17	-10
157	9	22	10	-17
157	13	22	-20	-4
157	6	15	-24	-9
157	5	21	5	-23
158	8	20	4	-26
157	6	21	21	-29
158	6	20	27	-21
157	3	17	21	-5
158	4	18	15	1
158	6	19	-4	8
157	4	19	-16	8
157	1	17	-2	10
158	4	14	19	16
157	4	14	31	20
157	7	18	34	26
157	7	13	15	17
158	3	18	1	7
158	4	21	2	-2
158	9	22	10	-9
157	12	20	7	-6
158	8	15	5	3
157	4	18	14	16
158	4	17	11	23
157	4	17	17	25
158	4	21	17	16
157	6	18	20	11
158	4	15	0	0
158	2	19	-36	-18
158	5	19	-14	-30
158	4	18	0	-20
157	3	19	-6	-10
158	4	19	10	-16
158	2	18	10	-6
158	4	18	8	-1
157	7	17	-7	6
158	7	15	-16	18
157	1	10	22	19
157	-2	12	54	14
157	-4	15	40	3
157	-3	19	24	5
158	3	20	22	6
157	5	21	16	2
158	8	22	13	3
157	7	24	18	1
157	8	27	31	-3
157	9	19	24	-1
158	8	17	-24	9
158	11	18	-52	7
157	9	19	-4	3
158	7	18	24	4
158	3	16	-1	8
157	3	17	-18	6
158	3	19	-19	4
158	6	20	-2	1
158	6	19	0	9
158	5	19	13	10
157	5	18	22	3
157	5	19	19	-5
158	5	19	-1	-11
157	5	18	-15	-4
158	5	19	-6	0
157	4	18	-11	-1
158	4	15	2	-1
158	3	15	10	2
158	3	18	14	3
158	5	17	25	2
157	7	17	17	-1
157	5	15	4	0
158	3	15	-11	3
158	4	16	22	-2
158	2	14	34	-2
157	6	18	12	-7
157	7	19	12	-7
158	4	18	5	-1
157	2	17	13	5
158	4	19	11	-1
158	4	21	15	-4
158	3	22	23	2
157	4	16	6	0
158	5	19	-22	-3
157	7	22	-7	-9
157	7	17	29	-1
157	5	17	4	-1
158	8	19	-18	3
158	7	19	-1	2
157	5	17	15	-5
157	4	18	12	4
157	3	18	15	9
157	2	20	18	18
158	4	20	13	26
158	4	17	19	26
157	3	21	16	18
158	7	19	13	13
157	7	19	8	-2
157	3	22	-2	-21
158	8	21	-2	-15
157	7	25	-6	-9
157	8	23	-1	-5
157	7	21	15	-2
158	4	19	27	-9
158	3	15	21	-15
158	-2	15	-5	-23
157	4	15	-18	-32
157	11	21	0	-26
157	15	22	0	-12
158	9	17	-19	-3
157	7	14	-18	3
158	10	9	-5	1
157	8	12	20	-8
158	4	11	52	-2
158	4	13	39	4
157	5	19	6	11
158	2	16	12	11
158	2	16	5	15
158	5	13	-10	20
157	5	16	6	19
158	7	18	-1	18
157	1	18	0	18
158	0	18	1	14
158	4	19	1	7
158	5	20	8	2
158	3	17	1	3
157	3	19	7	4
157	5	18	9	4
158	2	22	12	8
158	4	19	11	17
158	4	17	6	21
158	4	18	6	12
157	6	17	12	6
157	7	20	16	0
158	5	18	15	0
157	1	15	15	0
158	4	21	7	-2
157	1	18	13	2
157	0	16	10	2
157	1	20	11	1
157	-1	21	20	0
158	2	24	18	2
157	3	24	19	1
158	7	17	2	-3
157	4	18	-27	-5
158	14	27	-35	-5
158	18	24	2	-1
158	9	21	17	6
157	7	21	15	4
158	7	17	8	6
158	8	21	-8	7
158	5	20	17	-8
158	5	18	21	-5
158	3	15	2	0
157	3	14	-16	-10
159	1	15	-16	-11
157	3	20	22	-16
158	5	21	17	-12
157	4	22	6	-7
158	8	26	12	-13
158	8	22	-4	-10
158	6	19	-8	1
157	5	16	-13	5
157	10	18	1	2
158	9	19	15	7
158	5	17	18	7
158	5	14	20	3
157	4	14	4	4
158	4	13	5	4
157	6	11	12	7
158	10	17	22	4
158	6	16	31	-5
158	1	19	23	-5
158	-1	17	4	0
157	-1	21	-13	1
158	3	22	12	10
157	3	15	23	14
157	5	15	1	7
157	5	17	-3	7
158	0	20	5	7
157	2	19	13	9
157	3	18	19	7
157	4	14	10	12
157	4	16	-23	17
158	6	18	-33	7
158	6	16	1	7
157	8	17	6	21
157	7	17	14	27
158	10	20	26	24
158	9	18	10	14
157	8	19	15	-8
158	8	17	39	-22
158	5	18	38	-41
158	11	22	26	-50
159	8	19	37	-38
158	5	19	30	-36
159	4	15	20	-22
158	5	15	10	-1
158	4	14	-10	9
157	6	19	-26	7
158	6	18	-8	-1
157	2	11	10	-4
157	4	13	-23	3
158	1	17	-20	-4
158	-1	15	-3	-2
157	3	14	-8	4
157	2	19	5	-4
157	4	20	10	4
157	3	19	4	7
157	2	19	10	9
158	7	19	9	13
157	8	20	13	13
158	7	21	22	18
158	8	22	18	19
157	3	20	9	23
157	3	15	-4	20
157	5	20	-8	22
158	5	24	-1	23
157	6	19	8	18
157	7	18	11	15
157	7	19	9	7
157	8	18	15	-3
158	5	21	17	-14
157	5	18	14	-22
158	5	17	10	-22
157	5	21	13	-13
158	5	20	26	-7
158	3	22	40	-10
158	5	18	26	-12
158	7	15	-23	-3
158	8	15	-37	2
158	5	16	0	1
158	3	15	1	7
157	4	19	1	7
159	5	19	1	6
157	3	19	-9	3
158	3	20	5	3
157	3	19	0	3
157	5	21	5	0
158	6	19	9	4
157	4	17	5	-2
158	5	17	10	0
158	5	18	18	11
158	8	13	23	14
159	5	15	17	19
158	1	14	15	21
157	2	12	5	10
158	5	17	3	3
159	8	18	22	-6
157	6	17	35	-12
158	5	19	19	-8
157	5	16	17	-10
159	3	17	1	-10
157	5	21	-32	-17
157	5	22	-11	-9
158	5	22	22	-3
158	5	19	7	-9
158	4	19	-30	-1
158	2	21	-28	3
158	3	14	7	3
158	3	18	-3	6
158	5	21	-2	7
157	4	19	10	8
157	3	19	6	11
157	4	19	9	12
158	4	18	3	9
157	4	15	10	3
157	5	18	5	13
157	6	18	14	8
158	5	17	20	2
157	7	23	9	1
158	5	23	21	-8
158	6	22	24	-18
158	5	15	32	-16
157	1	15	30	0
158	2	18	39	3
157	3	21	42	-2
158	2	22	5	-5
158	5	20	-10	0
158	6	17	4	5
158	6	15	4	1
157	4	17	-9	1
157	3	17	-25	4
158	0	18	-16	0
157	0	14	0	-4
158	1	17	-2	1
158	4	24	-2	3
157	3	19	1	7
157	9	24	-1	13
158	19	25	0	16
158	13	21	9	15
157	5	18	18	12
158	5	16	27	-1
158	5	15	40	-8
157	6	15	33	-20
158	4	16	4	-22
158	2	14	-19	-12
158	2	17	5	-14
157	9	17	8	-7
158	6	14	-19	-12
158	7	14	15	-14
158	8	13	18	-4
157	4	15	6	0
158	4	17	15	9
158	1	16	-6	10
157	4	22	-1	13
157	5	23	-1	12
158	3	23	1	13
158	2	21	8	10
157	5	15	11	12
158	1	15	10	17
158	2	21	10	11
157	6	20	17	10
158	6	21	10	2
158	5	18	-16	-1
158	7	19	-26	4
158	8	17	29	5
157	3	18	25	8
157	3	14	2	14
157	4	14	27	7
158	5	15	26	-5
158	3	19	26	-5
157	5	22	-2	-2
157	6	17	-14	6
158	5	21	19	10
158	1	18	30	6
158	3	18	-1	-5
157	5	22	-25	-10
157	3	17	-5	-3
158	8	18	2	-1
158	8	20	-4	3
158	7	16	0	1
158	7	16	0	3
158	5	17	2	7
158	4	16	3	9
158	3	15	8	5
157	5	17	15	2
157	4	15	13	4
158	4	19	18	2
157	4	18	15	-2
158	0	17	4	-2
157	2	20	6	0
158	5	17	10	-5
158	10	17	16	-1
158	7	19	4	-4
157	4	15	-13	-6
158	3	14	0	0
158	1	18	6	4
157	-1	18	5	4
157	3	16	12	-5
158	5	21	12	-17
158	1	19	21	-30
158	5	25	27	-26
157	10	27	31	-7
157	11	25	27	2
158	11	25	9	6
157	10	16	2	12
157	9	17	-2	10
158	5	21	9	9
158	5	20	15	5
157	5	17	14	2
157	5	18	-13	10
157	5	18	-43	12
158	7	19	-12	11
157	5	18	2	6
158	3	19	-10	6
158	5	20	15	8
157	5	18	46	4
157	4	16	46	6
158	2	15	15	0
158	2	13	-1	1
158	1	16	-10	9
157	2	17	-10	16
157	1	16	4	9
158	4	17	-1	4
158	7	18	0	-4
158	4	20	-6	-20
158	5	24	-3	-14
158	9	24	7	-7
158	8	19	8	-6
158	7	21	9	-10
157	7	19	13	-15
158	7	18	15	-1
157	6	23	13	4
158	5	22	15	8
158	5	22	14	12
157	6	19	17	4
158	3	16	22	5
157	3	15	19	7
158	4	17	10	10
158	3	15	14	7
158	8	15	17	1
157	7	14	20	2
158	8	13	28	10
158	9	19	31	9
157	7	15	6	13
157	6	13	-18	18
158	3	13	-3	6
157	3	17	-24	1
157	7	19	-51	3
158	5	15	-11	4
158	3	14	-2	-2
157	3	19	4	-8
158	1	18	6	-7
158	2	16	5	-14
158	5	21	12	-21
158	6	22	6	-20
158	5	17	20	-14
157	1	19	4	-7
157	2	18	6	-6
157	3	16	10	1
157	5	20	10	2
157	5	17	17	0
157	3	18	0	2
157	5	17	2	-1
157	3	19	6	6
158	4	21	27	15
157	5	18	35	19
158	5	18	34	23
157	8	20	25	19
157	7	22	10	7
157	2	18	3	-4
158	3	21	-10	-8
158	4	19	0	-15
157	5	17	1	-5
157	3	15	5	5
157	2	13	15	4
157	4	18	17	10
158	2	17	-14	4
157	3	16	-34	14
158	8	15	2	23
158	7	15	3	16
158	5	18	1	14
158	8	20	2	-4
158	12	23	-10	-16
157	4	18	5	-23
157	3	18	1	-20
157	8	17	16	-2
157	11	21	31	9
157	7	22	32	9
158	3	19	41	4
158	5	18	31	-4
158	5	20	13	-5
158	5	17	0	0
158	6	16	-3	0
157	8	19	-1	-6
158	6	18	5	-9
157	8	17	-3	-7
158	7	18	-18	-1
157	5	19	-7	5
158	6	23	-19	5
157	4	19	-13	4
157	3	19	6	-2
157	0	17	12	-3
157	2	16	21	8
157	1	17	14	9
157	1	15	27	12
158	1	19	27	10
157	0	18	2	4
157	4	17	-18	7
158	5	23	-15	-1
158	7	22	6	2
157	11	22	13	3
157	11	22	37	4
158	5	19	32	6
158	1	16	5	0
157	0	17	-16	-2
158	4	15	5	-13
157	1	17	18	-7
157	7	18	0	6
158	5	12	-6	3
157	1	15	-14	0
158	3	17	13	-6
157	3	18	19	-8
157	4	21	3	-3
157	3	19	10	3
157	8	15	10	6
157	5	18	26	10
158	3	22	31	9
158	4	18	24	5
157	5	18	19	8
158	7	13	6	2
157	7	14	6	-1
158	5	19	0	1
157	8	19	-9	6
157	7	19	-12	7
157	4	15	-6	7
158	3	18	-2	5
157	3	21	-6	-2
158	2	19	3	-7
158	6	18	8	-10
158	7	19	5	-5
158	5	22	10	-9
158	7	19	3	-16
158	8	22	3	-9
158	5	20	25	-1
158	3	17	35	6
157	3	19	-6	16
158	4	17	-16	6
157	7	17	21	0
158	3	17	15	-11
158	4	17	13	-18
158	1	19	6	-12
158	2	19	-4	-15
158	8	21	5	-14
158	6	21	1	-7
158	5	17	4	4
157	7	14	-3	10
158	7	19	0	9
157	6	19	16	13
157	4	16	46	14
158	6	17	56	4
158	7	19	25	9
158	7	19	5	19
158	8	18	4	13
157	5	17	4	12
158	5	18	-7	11
157	7	17	5	8
158	6	18	16	10
157	5	16	8	8
157	6	17	-20	3
157	5	20	-39	2
158	3	14	9	7
157	0	12	19	6
158	-1	14	23	0
158	1	13	24	-2
158	7	16	-8	-9
158	8	21	-6	-4
158	7	19	-7	-3
158	6	19	1	-3
158	8	24	5	2
157	8	20	16	4
158	7	19	31	1
158	10	24	5	-6
157	7	21	-23	4
157	7	19	-4	0
158	7	18	16	0
158	6	16	6	7
158	5	17	16	8
158	4	18	12	9
158	2	18	13	4
157	5	20	6	2
158	3	18	-1	2
158	4	18	5	2
158	7	18	6	2
158	6	17	8	2
157	5	20	4	-2
157	4	21	13	-1
158	6	19	20	10
158	7	20	22	13
158	5	19	26	13
158	5	12	31	16
158	0	12	20	9
158	-3	13	-10	5
157	-2	12	-32	1
158	0	13	-30	-10
157	-3	11	-31	-16
157	5	17	-44	-16
158	6	22	-8	-11
157	4	18	-1	-9
158	13	24	-5	-12
158	17	25	30	-16
158	12	19	43	-15
158	9	25	35	-8
158	10	22	26	3
158	5	17	31	-9
157	5	21	14	-13
158	5	20	12	-4
158	3	18	15	-1
158	6	19	12	4
158	3	19	12	8
157	1	18	10	6
157	1	18	12	3
158	1	17	10	8
157	3	20	6	5
157	3	22	4	5
157	5	18	7	9
157	3	18	5	8
158	3	18	-1	10
158	2	18	-2	7
158	6	19	3	3
158	4	21	5	4
157	1	18	6	5
158	1	19	10	16
157	0	19	6	25
158	0	15	7	22
158	1	13	13	21
157	4	15	4	14
157	5	20	-8	-1
158	13	19	5	-9
157	14	18	19	-11
157	8	20	19	-9
157	6	19	16	-27
158	4	20	5	-26
157	3	21	7	-27
158	3	18	3	-29
158	3	16	2	-4
158	2	21	10	-2
159	4	20	14	6
158	7	24	13	4
158	5	22	4	6
157	5	20	-6	14
157	2	19	-9	4
158	1	15	3	7
158	5	17	6	10
158	5	17	15	9
157	7	15	23	9
158	7	16	6	7
157	7	18	-18	2
157	7	18	-21	-2
158	9	18	2	0
157	8	15	4	6
157	8	17	4	6
158	7	18	21	13
158	8	17	30	19
158	7	17	31	11
157	5	17	22	4
158	7	15	-7	1
157	5	18	-27	7
158	10	18	10	10
158	7	15	15	5
158	5	18	10	7
157	5	19	7	3
158	5	17	-15	-1
158	2	15	-3	-1
158	4	17	-4	0
157	5	15	16	-5
158	4	17	16	-9
158	3	15	-5	-7
157	1	15	18	3
157	0	19	29	10
157	2	17	1	3
158	1	17	6	-4
158	5	19	14	-2
158	12	17	4	-7
158	9	20	13	-7
157	6	21	1	-7
158	13	24	14	-10
158	19	28	15	-8
158	11	24	13	-4
158	5	19	19	4
157	4	15	5	-1
157	1	18	3	-11
158	2	17	3	-17
157	4	15	8	-18
158	4	11	5	-13
158	2	14	7	-4
157	3	17	12	3
157	0	16	10	5
157	2	18	6	11
157	5	17	17	8
157	4	19	25	3
158	7	22	-3	14
158	3	17	-1	21
157	2	17	1	22
157	5	19	-14	20
157	5	15	-1	17
158	5	15	7	10
157	0	15	12	10
158	-3	13	13	7
157	0	16	13	10
157	0	18	24	16
158	0	21	5	10
158	0	21	2	2
158	5	18	13	-16
159	7	19	10	-28
158	10	22	24	-30
158	13	20	31	-22
157	13	19	23	-5
157	10	14	2	0
157	9	19	-20	6
157	8	18	-9	3
157	5	15	1	10
158	4	17	-9	8
157	5	19	-5	3
157	9	22	-9	4
158	9	15	-1	1
158	7	14	19	7
158	5	15	8	0
157	6	18	2	3
157	7	20	6	15
157	5	18	9	15
158	3	24	20	12
157	4	22	25	9
158	1	20	-2	10
158	4	23	-12	15
157	8	20	19	16
157	4	18	15	7
157	3	19	-2	0
157	1	18	6	-9
158	-1	20	13	-19
158	3	22	28	-21
158	3	18	10	-25
157	1	21	-10	-30
157	3	21	-6	-23
158	7	19	-19	-11
158	6	22	-25	-7
158	6	15	11	0
158	5	14	39	2
157	5	14	23	9
157	8	10	24	10
157	13	10	15	11
158	8	15	-10	12
158	2	18	-1	7
158	0	18	10	11
157	-4	16	16	9
158	0	17	11	6
158	4	17	-12	4
158	7	19	0	6
157	5	18	32	-1
158	5	22	16	-4
157	3	21	3	3
158	5	21	-1	2
158	3	22	3	4
158	3	17	15	6
158	4	17	16	0
157	8	17	21	-10
158	9	17	16	-6
157	5	18	27	1
157	4	17	22	2
157	7	18	-1	3
158	4	21	-30	8
158	4	21	-23	13
158	4	19	0	8
158	7	17	-14	4
158	4	17	19	2
158	3	17	29	-2
157	3	18	-1	-5
158	2	17	-2	7
157	4	17	8	13
157	5	18	20	12
158	8	20	34	19
157	3	22	29	10
158	3	23	0	2
158	3	18	-2	-16
158	3	14	17	-24
158	7	18	27	-31
157	4	17	18	-40
158	5	15	-24	-22
157	6	16	-18	-8
157	4	12	13	-3
157	4	18	10	-3
158	6	18	0	7
158	10	19	-28	16
157	8	18	-6	13
159	7	15	9	11
157	5	23	-8	11
157	8	19	-2	13
157	7	21	-4	10
158	5	20	15	7
158	7	16	20	3
157	3	17	10	1
157	1	18	10	10
158	0	17	16	15
158	3	17	26	11
157	5	16	18	11
157	5	18	8	-1
158	15	25	4	-10
158	18	23	2	3
157	5	16	1	14
157	4	18	-6	9
157	9	19	-7	0
158	7	18	20	3
157	10	17	30	2
157	13	18	6	1
157	5	17	-12	-4
158	3	18	-1	-12
157	3	14	18	-20
158	4	16	8	-17
158	1	17	14	-3
157	3	19	13	1
158	5	21	-7	3
157	2	19	-11	7
158	3	22	19	14
158	5	21	28	9
159	9	19	9	9
157	10	18	14	12
157	5	17	6	9
158	1	15	10	7
157	2	17	8	4
157	2	13	15	1
158	1	14	16	-7
156	3	17	12	-11
158	6	16	19	-17
158	5	19	19	-15
157	5	19	28	-14
158	3	17	15	-17
158	3	18	-1	-8
158	8	19	-23	-3
157	5	15	-19	-2
158	3	18	-11	2
158	3	21	-8	4
158	5	17	3	9
157	8	23	12	10
157	7	20	45	9
158	5	20	20	13
158	5	22	-3	7
157	3	14	-2	15
157	3	10	-23	15
157	3	14	-20	4
157	5	18	2	11
158	5	17	6	11
158	4	17	6	4
157	3	19	-1	-1
157	3	22	5	1
157	3	23	53	1
158	3	20	57	6
158	4	17	26	6
157	7	16	12	-9
157	5	17	19	-10
157	5	17	18	-5
158	3	16	-5	0
158	6	19	-22	3
157	4	23	-30	8
157	2	19	-11	7
158	5	19	2	3
158	3	19	-4	-11
157	5	23	9	-23
158	8	24	15	-12
158	8	19	13	-4
158	5	21	11	-1
158	7	17	12	2
157	5	17	19	4
158	5	21	19	1
158	7	19	13	0
157	7	17	5	-2
158	8	18	-3	0
158	5	21	-7	1
158	5	19	-1	7
158	3	18	6	14
158	3	17	5	11
158	5	15	6	10
158	4	17	10	6
158	4	17	12	4
157	7	16	13	2
157	3	18	14	3
157	3	14	16	10
158	4	17	17	0
157	2	17	-12	0
158	5	20	-18	6
157	8	18	15	9
157	5	17	-7	13
158	5	17	-23	7
157	1	15	-18	4
157	0	17	12	0
158	2	15	27	3
158	5	18	16	3
157	4	15	53	0
157	1	19	41	-6
158	2	20	1	-17
158	5	19	-29	-12
157	7	21	-24	-2
158	8	16	-4	8
158	15	21	8	8
158	10	21	6	9
158	5	18	-15	4
157	8	18	10	-7
157	4	18	15	-13
157	5	15	13	-29
157	5	17	12	-26
157	5	20	6	-4
158	9	21	15	0
158	8	19	20	3
158	4	18	20	7
157	5	18	12	-1
158	5	15	8	-4
157	4	14	8	-10
158	1	17	19	-14
157	3	14	24	-5
158	4	10	9	1
157	1	13	-11	5
158	2	20	-13	13
157	0	18	5	13
159	1	20	33	7
158	3	19	49	13
158	5	16	18	11
157	8	20	-10	4
157	11	24	-3	-1
158	13	24	-2	-2
157	7	23	2	5
158	4	22	4	11
158	4	21	1	16
157	3	19	6	13
158	5	18	10	14
158	8	19	9	13
158	4	17	18	13
157	6	18	19	12
157	5	21	8	-2
157	4	18	7	-4
157	4	19	1	-4
158	0	21	1	-2
157	1	16	2	2
157	-1	18	1	4
158	1	19	12	-1
157	5	21	13	-4
158	5	20	10	-6
157	3	19	-19	-8
157	3	18	-34	-1
157	3	19	21	1
157	3	16	34	6
158	5	15	15	3
157	5	18	15	0
158	7	17	9	6
159	4	15	-1	5
158	4	18	-10	2
158	5	15	2	-1
157	7	17	4	-7
158	7	17	5	-1
157	4	14	6	3
158	10	15	10	5
158	9	16	23	7
157	5	17	18	0
158	4	15	4	2
159	3	18	10	2
158	0	19	28	4
158	3	20	18	4
157	6	19	23	-1
158	3	17	24	-2
158	1	23	-16	2
157	4	22	-28	5
157	3	18	-10	0
157	3	17	-4	6
157	4	23	-15	7
159	3	25	-6	-5
157	4	20	13	-2
158	5	21	9	-8
157	5	22	7	-2
157	9	16	-6	2
158	8	15	-7	0
157	9	19	5	1
157	9	19	4	2
158	8	15	13	4
157	5	17	22	0
158	5	17	20	-1
157	3	15	6	-4
157	7	15	-9	2
157	7	12	-4	4
158	7	14	7	4
157	6	16	17	9
157	7	16	32	6
157	7	18	53	4
157	7	17	33	13
157	7	15	9	19
158	7	18	8	20
157	6	15	3	25
157	5	17	7	28
157	8	17	5	16
158	5	18	1	-3
157	5	17	8	-16
158	7	15	13	-42
158	5	18	9	-57
158	10	22	12	-44
157	8	21	17	-36
158	4	18	-1	-37
157	7	18	-15	-24
158	8	21	7	-8
158	3	19	23	1
157	5	17	21	10
157	2	22	10	15
158	2	24	-19	10
157	3	23	-39	4
157	1	24	-24	7
158	1	25	-2	12
158	2	24	-1	10
157	3	22	23	12
158	5	24	22	10
157	2	23	6	12
158	2	21	12	13
158	10	23	8	10
158	15	22	3	14
158	9	17	1	14
158	5	15	8	12
157	4	14	21	10
157	2	15	30	7
157	4	14	-1	12
157	4	15	-12	9
158	4	15	17	-3
158	3	14	5	1
157	2	15	4	2
158	3	14	6	2
158	3	17	-1	6
157	3	17	5	4
158	2	14	6	3
157	6	15	5	5
157	8	17	14	11
157	7	16	20	10
157	5	13	15	5
158	3	15	13	7
158	8	17	14	-2
158	5	18	9	-8
158	3	14	8	-9
158	1	16	12	-18
157	3	17	22	-12
158	5	17	30	-5
159	7	19	7	0
157	12	24	-22	5
158	15	19	-17	-4
158	5	12	-9	-3
158	5	13	9	4
158	5	14	25	-4
157	5	20	2	-4
158	4	19	1	-4
157	4	21	-6	-4
157	3	21	-7	0
158	3	18	10	-1
157	3	18	0	-4
158	1	20	-1	-1
158	3	20	-5	2
158	1	21	9	2
158	0	23	25	9
158	5	18	20	8
157	2	17	5	6
158	4	22	-4	7
157	4	19	-3	5
157	5	17	2	-3
157	8	20	10	-12
157	3	22	31	-8
157	2	22	62	-1
158	5	18	29	3
158	7	19	-7	12
158	8	19	7	19
157	7	17	5	16
157	9	15	8	10
157	8	16	10	12
158	9	19	6	9
158	7	19	8	3
157	4	19	-24	11
157	5	18	-16	21
158	7	17	5	24
158	8	17	11	17
158	7	21	29	0
157	5	24	17	-15
158	3	20	6	-36
158	0	19	-3	-51
157	-1	19	-10	-54
158	1	16	-4	-40
158	4	16	13	-17
158	3	18	39	-7
157	3	17	20	2
158	5	20	-8	9
157	7	17	-14	13
158	4	17	-3	12
157	5	22	4	10
158	6	17	-3	9
158	8	15	0	-1
157	7	17	1	7
158	8	17	-1	14
157	4	15	1	16
157	1	12	12	13
158	4	15	10	18
157	5	18	10	14
157	6	17	23	14
158	6	18	28	21
158	1	19	25	23
157	2	17	21	18
158	3	19	28	2
157	3	16	28	-12
158	6	14	10	-27
157	7	21	-25	-26
158	7	19	-26	-16
158	5	19	12	-1
157	7	21	13	0
158	5	21	19	1
158	7	19	13	7
157	4	19	0	4
158	5	19	-8	3
158	3	17	-23	5
157	1	17	10	8
158	3	15	10	4
157	4	19	-21	0
157	8	21	-28	2
157	7	20	-24	6
158	10	22	2	4
158	16	23	2	11
157	11	17	6	11
157	4	17	24	7
158	5	18	29	3
158	5	15	32	-4
157	-1	14	31	-4
158	2	17	31	-12
157	3	19	25	-13
157	5	19	25	-6
157	9	21	7	3
158	7	19	-22	12
157	6	16	-10	11
157	3	13	5	4
157	3	19	13	-1
157	5	21	54	0
158	3	15	53	-3
158	4	17	16	-1
158	4	14	7	4
158	5	17	-5	8
157	5	19	1	6
158	4	18	22	2
157	3	19	15	4
158	3	18	11	6
158	5	16	-13	4
158	2	18	-32	6
158	1	19	-9	4
158	4	18	7	4
158	7	18	16	-3
157	8	21	-13	0
157	11	22	-21	-1
157	5	22	2	-4
158	3	17	8	-2
158	3	21	12	-5
157	3	22	1	2
157	2	21	12	-1
157	4	22	7	2
158	5	18	3	8
158	7	19	10	9
157	8	17	17	9
158	7	15	19	4
158	8	17	4	0
157	5	16	2	-4
158	7	15	0	-12
158	5	19	9	-24
157	5	20	20	-31
157	7	19	32	-27
158	7	19	32	-6
158	8	19	14	-9
158	5	19	-22	-11
157	6	18	-26	-2
158	5	16	5	-4
157	3	19	-5	-2
157	5	18	6	0
158	7	19	13	11
157	8	19	11	18
158	5	19	14	15
158	4	17	7	16
158	5	14	10	10
158	5	15	13	6
157	5	13	10	8
157	6	13	0	4
158	3	18	-8	6
157	4	20	-10	4
158	4	22	-8	2
157	5	21	-12	7
157	7	22	22	5
157	5	22	24	8
158	5	19	5	6
158	2	18	15	6
158	3	20	-3	8
158	4	19	4	4
157	8	18	8	11
158	4	17	7	15
157	0	13	5	6
158	-3	18	-3	0
158	-2	21	9	3
157	1	20	20	6
158	9	22	35	7
158	17	20	28	1
158	12	23	25	-7
158	1	19	-1	-3
158	3	15	-20	-3
157	3	17	17	-6
157	3	15	16	-2
158	3	22	-12	-5
157	3	20	2	-4
157	1	13	23	-3
157	3	16	18	1
158	4	21	13	4
158	5	20	-6	2
158	7	17	-7	5
158	5	20	-7	-1
158	8	17	-6	1
158	4	19	19	-2
158	8	21	13	-2
157	8	17	8	5
158	7	19	8	2
158	6	19	10	3
157	5	19	8	-7
158	2	17	8	-17
158	2	16	15	-13
158	5	15	17	-3
157	5	15	18	2
158	7	14	10	2
157	7	13	13	1
158	7	17	14	9
158	3	18	16	10
158	2	18	17	4
157	3	18	7	7
158	2	16	-20	9
158	2	22	-29	8
157	7	21	-2	2
158	8	19	-3	-1
157	5	19	-9	-5
158	8	20	4	0
157	7	18	8	1
158	5	20	5	2
158	7	18	10	3
157	4	18	13	3
158	4	19	10	3
157	6	19	13	3
157	6	15	8	3
158	3	16	5	4
157	7	17	9	7
158	5	19	16	2
159	6	17	13	3
157	6	19	10	4
158	5	18	18	1
157	8	15	26	2
157	7	18	23	2
157	7	23	13	-2
158	4	21	16	-1
157	7	20	22	-2
157	7	20	20	1
157	5	19	5	-1
157	5	24	-15	-2
158	5	19	-8	0
158	5	17	5	-2
157	5	13	-7	2
158	5	12	2	4
157	6	20	28	4
158	5	18	37	4
157	5	14	22	-2
157	3	14	-38	-2
158	2	17	-40	-6
158	4	16	24	-7
158	3	15	-5	-2
158	3	17	-35	-2
158	2	18	-6	-4
157	-2	15	25	0
158	0	13	28	13
158	1	19	-13	9
157	7	24	-16	-4
157	8	21	-9	-2
158	8	24	-6	0
158	7	24	-1	2
158	8	19	-8	4
158	5	18	4	2
158	6	15	36	6
157	4	15	80	9
158	3	15	61	10
158	5	13	16	11
157	3	17	25	12
158	3	17	21	12
157	3	17	6	15
158	0	17	6	14
158	0	16	-3	16
157	1	17	-2	11
157	-1	15	8	13
157	0	16	12	4
158	4	19	0	-7
158	8	20	-12	-16
158	8	18	-10	-32
157	16	19	5	-46
158	20	22	9	-44
158	13	21	5	-30
157	5	18	8	-12
157	4	20	2	-3
158	0	19	-5	-1
158	3	19	-6	2
157	7	21	-1	2
157	6	21	-4	3
157	9	21	13	9
157	8	17	16	11
157	5	19	12	13
158	4	21	5	13
158	5	24	-13	9
157	5	23	0	10
158	5	21	6	10
158	7	16	20	10
156	7	14	38	7
158	4	17	37	-5
158	5	16	24	-2
157	5	19	10	2
157	3	16	17	4
157	4	15	-2	5
157	4	17	-27	2
157	6	20	-31	1
157	6	21	-12	1
157	3	22	6	1
158	3	17	18	10
157	1	15	25	17
157	0	13	10	7
158	0	17	-29	12
157	5	19	-51	18
157	5	15	10	7
157	5	17	5	4
157	6	16	-17	3
158	8	14	17	3
158	10	15	13	-2
158	9	17	34	-8
157	7	16	25	-14
158	5	15	23	-18
158	8	18	22	-20
158	7	17	19	-16
157	5	19	27	-6
158	5	19	23	3
158	7	21	33	4
158	3	19	15	10
158	3	18	1	10
158	6	22	-15	9
157	4	20	-12	1
158	7	21	19	6
157	5	19	8	9
158	5	17	-12	3
159	7	17	-1	-3
157	3	18	0	0
157	5	18	-11	8
157	3	15	2	9
158	5	19	22	4
157	3	16	41	1
157	1	16	37	2
158	3	17	20	3
157	4	17	13	3
157	5	14	8	4
157	4	15	12	7
158	3	18	0	8
158	3	21	0	-2
158	5	23	1	-3
157	7	19	-2	2
158	5	21	-2	4
157	2	15	0	10
157	0	15	9	7
157	3	21	6	4
157	-1	15	6	12
158	2	16	5	10
157	7	21	25	3
158	7	17	21	-9
158	9	19	-1	-12
158	19	25	1	-17
157	20	21	7	-21
157	10	16	-6	-1
157	7	18	-15	5
158	6	17	-1	7
158	4	15	37	4
157	2	13	61	4
157	3	16	9	8
157	3	20	-33	6
158	2	16	-30	4
157	5	22	-32	-1
158	3	20	-22	-7
157	1	17	0	-16
157	0	16	4	-13
157	5	19	14	-9
158	12	19	10	-9
158	10	15	7	-6
158	2	15	9	-1
158	-3	15	4	0
157	-4	20	21	-2
158	4	17	23	-1
158	9	21	23	1
158	9	26	20	-4
158	5	26	26	-6
157	2	26	21	12
158	1	20	5	12
158	1	23	6	4
158	8	16	2	9
157	6	15	-3	11
158	6	17	5	8
157	4	16	6	10
158	2	15	0	9
157	4	15	1	9
158	5	17	-4	10
157	7	15	-1	4
158	4	19	10	6
157	7	21	7	4
157	8	19	1	4
157	7	19	13	9
157	8	20	10	6
158	8	17	6	2
158	9	19	11	4
157	10	18	16	5
158	9	21	17	2
157	5	19	18	-2
157	3	17	10	-1
157	5	17	-19	1
158	5	16	-22	-1
157	5	15	16	-2
158	5	18	25	1
158	5	18	2	-5
157	3	15	8	-6
157	4	19	8	-2
157	5	21	12	-5
157	2	19	18	-6
157	3	18	1	-5
158	3	13	6	0
158	3	14	31	4
158	3	20	45	4
158	7	18	21	0
158	7	19	18	9
157	5	16	28	13
158	5	17	5	2
158	3	21	-9	1
158	5	18	-12	-1
157	5	19	-6	2
158	7	21	2	3
158	5	21	2	-1
158	2	21	-6	-2
157	2	17	-2	2
157	3	13	6	7
157	4	18	16	8
157	5	18	15	14
157	5	17	4	8
158	1	16	-2	6
157	2	19	-7	-7
159	5	19	-6	-27
157	7	21	-2	-30
157	5	19	16	-31
158	6	18	28	-22
157	7	17	26	-2
159	7	15	10	4
158	5	22	-8	1
158	4	22	-5	15
158	7	22	29	7
158	5	21	28	0
158	8	22	6	4
157	6	20	-9	7
157	1	24	-20	12
157	3	20	3	4
158	3	19	-14	4
158	4	19	-26	5
157	4	13	-7	8
158	3	19	9	3
157	7	18	30	5
158	7	18	16	13
158	7	18	-9	18
158	6	13	3	19
157	5	13	26	1
158	3	14	11	1
158	6	15	0	-5
158	4	19	1	-9
157	10	22	6	2
158	16	20	15	5
158	8	18	21	11
158	4	14	18	6
157	7	17	3	2
158	8	21	-2	-2
157	10	24	-5	1
158	10	20	-2	-3
157	8	19	-3	-15
158	4	21	2	-12
158	3	21	8	-13
157	3	20	6	-16
157	3	19	20	-10
157	5	19	15	-1
157	5	18	15	8
158	5	18	14	9
158	1	19	17	4
157	3	19	20	1
158	5	17	10	2
158	5	16	7	10
157	7	15	-2	13
158	6	17	5	8
157	4	19	3	11
157	3	17	-13	13
157	3	18	-8	8
158	4	18	-5	2
157	4	15	-3	0
157	2	15	0	-3
158	1	17	3	-3
158	2	19	60	1
157	4	19	101	-3
158	3	17	71	-3
157	5	11	35	-5
158	9	16	-17	-5
158	9	17	-22	0
158	4	17	0	-12
157	3	21	-22	-18
158	-1	18	-13	-11
158	-1	18	4	-8
157	3	19	2	-6
158	7	15	-3	-7
157	6	17	-2	-4
158	1	17	6	2
157	3	16	-6	6
158	3	19	-8	12
158	6	17	-2	16
158	5	19	5	13
158	4	18	11	6
158	4	17	11	8
158	5	17	13	13
157	8	19	5	12
158	4	17	8	13
158	8	18	7	12
157	5	17	2	12
158	3	15	9	12
157	4	18	13	9
158	7	14	27	17
158	7	17	35	10
157	6	17	13	-2
159	7	22	-26	1
158	4	21	12	-9
159	4	20	29	-17
158	4	19	-28	-13
158	2	14	-19	-4
158	0	11	-19	3
157	3	13	-4	-8
158	4	24	15	-7
158	7	18	-9	3
159	9	21	-8	3
158	10	19	-6	0
157	6	16	10	-5
158	3	22	9	-2
158	2	17	12	6
158	4	19	15	11
157	6	18	16	15
157	5	17	23	18
157	4	15	17	9
158	5	16	16	7
158	2	18	8	-1
157	4	16	13	-19
157	1	16	17	-22
157	1	19	13	-13
157	3	21	9	0
157	5	22	6	-2
157	4	19	4	4
158	2	18	4	2
158	5	19	11	2
158	4	18	3	9
158	2	17	1	10
157	4	19	13	12
157	4	19	20	9
158	2	17	21	13
157	0	17	19	11
158	4	21	17	14
158	7	21	28	14
157	7	22	36	4
158	8	19	16	6
158	11	19	-31	2
158	14	20	-27	-11
158	3	18	10	-14
158	5	19	1	-30
158	8	18	9	-43
158	4	19	-5	-30
158	6	19	-22	-20
157	7	17	-13	-21
157	7	23	-2	-16
158	11	20	29	1
157	10	19	47	3
157	7	19	65	4
157	6	17	38	14
158	7	19	10	14
158	8	19	13	10
158	6	18	-11	6
157	5	18	-34	8
158	4	16	-30	12
157	4	17	7	19
158	3	20	16	22
157	4	21	12	20
158	1	15	29	19
158	2	14	27	20
158	3	17	0	18
157	7	22	-19	6
158	3	17	-9	0
157	5	9	-32	-4
157	9	9	-29	-13
157	3	12	6	-23
157	4	14	-10	-18
158	0	17	-10	-7
158	-3	18	10	-8
157	1	18	28	-6
157	4	21	14	2
158	8	22	-1	4
157	2	22	5	0
157	4	21	8	-1
157	0	19	18	-2
158	0	18	5	0
158	2	18	0	1
157	6	20	1	2
158	9	19	14	13
158	8	14	20	10
158	8	14	14	12
157	7	17	15	11
158	8	17	8	10
157	2	16	17	16
159	7	19	13	16
158	9	19	16	12
158	5	17	19	8
158	7	19	5	1
158	5	21	-7	6
158	5	24	-2	6
157	7	23	38	4
157	4	17	21	9
158	6	17	-26	6
157	4	19	-5	-8
158	2	21	11	-24
157	4	14	31	-32
157	7	13	29	-26
157	8	15	-5	-8
157	7	16	0	-5
157	7	18	8	-5
158	5	17	17	0
157	9	17	20	-1
158	9	22	7	1
158	8	25	1	2
158	4	21	5	3
158	7	24	24	2
157	7	24	16	-1
158	3	20	3	-4
158	2	11	7	3
157	4	15	7	6
158	5	19	9	6
157	7	18	7	15
158	5	14	1	11
158	8	15	-21	15
157	5	19	-28	15
158	5	14	-7	12
157	5	14	-9	11
158	5	17	16	9
158	3	17	47	6
158	3	18	40	-5
158	1	17	16	-4
158	3	16	1	-3
157	3	19	-12	-1
157	1	17	-3	-6
158	-1	15	32	-8
157	0	18	22	-8
158	3	13	-4	-10
158	2	15	-1	-14
157	5	21	5	-10
158	5	17	6	-5
157	3	22	6	-8
157	2	18	6	8
157	11	22	-5	23
158	12	17	15	17
158	3	16	22	10
158	4	21	-5	8
159	7	19	-7	4
157	5	21	-22	-1
158	6	18	-5	4
157	4	20	4	0
158	7	22	2	-7
157	5	19	11	-9
158	5	19	-1	-15
158	5	16	0	-19
158	4	17	2	-17
158	5	21	9	-4
158	5	18	15	-1
157	7	19	10	4
157	6	19	10	9
158	5	22	24	5
157	5	22	37	10
158	5	19	13	11
158	7	17	-17	9
157	7	17	5	11
157	5	17	10	9
158	5	18	2	9
157	8	21	15	12
157	6	18	7	6
157	5	18	10	2
158	6	16	8	7
157	7	17	11	4
158	5	21	7	7
158	4	17	5	7
158	4	17	-3	13
157	7	20	-13	11
158	9	16	3	7
158	4	13	10	2
157	1	13	26	-2
157	0	12	35	1
158	-2	15	31	2
157	2	20	32	3
157	10	21	20	6
158	14	23	16	0
158	8	20	10	-7
158	7	24	11	-13
157	7	23	12	-26
157	1	23	-17	-23
158	7	24	-27	-10
158	6	21	-10	-6
158	7	15	-18	-1
157	5	15	1	0
158	4	16	9	6
157	4	15	3	12
157	4	17	-9	10
158	5	18	-20	10
158	1	17	14	11
157	3	15	51	6
157	0	15	52	2
158	1	15	16	2
157	1	17	12	2
157	4	14	12	6
157	3	17	-13	7
158	5	21	-11	3
158	7	19	7	6
157	4	18	42	6
158	5	19	33	-1
158	5	16	-30	3
157	4	13	-16	-4
157	1	17	5	-11
158	2	18	-5	-13
158	5	19	8	-10
157	1	20	-7	-5
157	5	20	14	-7
157	5	22	33	-8
158	8	17	29	-8
158	7	19	6	-7
158	5	21	-19	-6
158	5	20	-28	2
157	8	24	-25	2
158	8	22	10	6
157	7	21	15	9
157	8	22	21	0
158	6	23	18	-2
158	5	17	6	3
158	3	14	10	2
158	5	13	1	0
158	4	16	0	5
158	1	17	-2	7
158	1	19	6	10
158	4	17	7	12
158	4	17	4	14
158	5	17	4	21
158	8	18	2	13
157	6	17	12	6
158	11	24	10	-2
157	16	25	17	-15
158	7	15	25	-11
157	5	17	28	-7
157	5	19	18	-5
159	5	22	-6	2
158	5	23	3	7
157	4	19	21	10
158	3	18	15	13
157	3	17	12	10
158	3	15	15	8
159	3	12	16	16
158	4	19	12	10
158	1	18	2	-3
158	2	16	4	-5
158	2	17	5	-16
158	3	17	-8	-11
158	3	14	1	-6
159	5	17	16	-6
157	3	15	5	-1
158	1	17	15	-3
158	3	15	17	-2
158	3	14	2	1
157	3	22	-9	3
158	4	23	1	0
158	5	19	8	2
158	5	21	-1	6
157	4	15	-6	6
158	1	15	-6	9
158	3	15	11	7
157	6	15	7	0
158	6	23	-3	3
157	10	19	10	12
158	7	17	32	13
157	5	21	50	12
158	9	20	30	0
158	7	22	-5	-6
157	5	22	-9	-12
157	4	13	-2	-21
158	3	15	-10	-26
157	7	19	-19	-13
158	5	18	-23	6
158	5	17	6	7
158	5	19	31	10
158	3	18	22	7
158	3	19	21	5
158	3	20	-15	3
158	7	19	-23	14
159	9	20	2	22
157	11	17	9	22
158	5	19	12	18
157	5	22	0	9
158	5	19	11	4
158	4	21	13	-6
157	3	19	8	-5
157	5	19	10	-11
157	7	22	2	-18
157	5	22	-1	-18
157	6	17	5	-26
158	6	19	19	-17
157	6	17	28	-10
158	6	17	46	2
157	5	21	18	6
158	5	19	-7	2
157	6	18	21	5
157	5	17	21	1
157	3	17	15	-5
157	3	18	8	0
158	5	15	7	6
157	5	15	15	5
158	3	14	12	7
158	7	13	9	16
157	5	14	17	10
157	9	15	-14	9
158	9	15	-45	12
157	3	13	-22	7
158	3	19	-13	1
157	5	21	-9	-6
158	8	19	9	0
158	5	19	12	2
157	4	18	8	2
158	1	19	-2	0
158	3	16	1	3
157	1	18	14	4
157	1	17	24	6
157	3	15	34	5
158	2	15	24	-1
157	1	19	0	-1
157	3	22	-3	10
157	5	21	22	21
157	10	21	24	23
158	18	19	26	17
157	12	24	36	2
157	5	17	17	-13
158	7	18	-31	-24
158	5	23	-66	-24
157	4	18	-23	-21
158	3	19	28	-10
157	3	19	35	-7
158	2	22	14	-2
157	1	21	-2	5
157	3	19	6	7
157	2	19	2	11
159	2	19	9	9
158	4	20	19	15
158	1	19	15	12
157	3	21	8	9
158	7	15	12	7
158	7	9	16	-2
158	3	11	8	-10
157	5	15	5	-14
158	5	14	12	-12
157	5	16	13	-10
157	4	15	5	-3
158	5	22	-5	-1
158	5	19	22	5
157	8	18	46	6
158	10	19	4	5
157	6	19	-12	4
157	4	25	-16	3
157	3	21	-16	4
157	5	18	6	5
158	8	19	0	7
158	7	21	11	11
158	5	19	12	7
157	3	21	10	0
158	4	18	14	4
158	4	17	16	9
157	5	20	15	14
157	3	17	-6	13
158	4	16	-1	9
158	7	19	8	-2
157	5	17	16	-11
158	5	18	33	-22
157	5	19	30	-25
158	6	15	8	-10
158	4	16	-18	-1
158	7	14	-12	0
158	7	15	6	-5
157	5	18	-4	-4
158	7	18	-7	0
157	7	18	-9	-4
158	7	18	-5	5
157	5	17	5	15
157	2	18	14	21
157	0	15	16	23
158	1	15	10	16
158	4	19	17	8
157	5	18	12	2
157	1	17	8	-3
157	1	21	12	0
158	4	22	16	-2
157	7	19	23	-9
157	3	18	22	-4
157	1	14	2	-7
157	3	14	-12	-12
158	2	14	-7	-6
158	2	16	-7	-2
158	3	16	2	4
157	8	17	-4	0
158	12	19	-4	3
157	8	18	21	4
157	7	17	14	1
157	5	18	6	3
157	1	18	10	0
158	3	19	20	4
158	7	17	32	2
157	8	19	27	2
158	3	15	17	3
157	7	17	-16	-1
157	8	22	-21	0
158	10	19	16	2
158	8	18	12	7
158	4	18	15	3
157	4	19	26	7
157	4	17	23	11
158	3	14	14	5
158	3	14	-25	4
158	3	15	-35	6
158	3	15	-1	9
158	1	14	-3	5
158	2	15	6	4
158	3	14	16	2
157	0	15	4	-6
158	3	13	0	-18
158	2	17	-17	-16
158	2	21	-19	-7
158	3	17	6	-6
158	5	18	31	-1
159	5	20	48	2
157	8	23	47	5
157	19	24	19	6
158	20	23	10	3
158	10	19	15	0
158	7	20	8	0
158	7	19	8	3
158	5	18	5	3
157	7	19	5	7
158	6	18	1	9
158	4	20	1	9
158	3	22	2	6
158	5	23	2	0
158	5	20	5	-1
158	3	19	4	-2
158	4	21	11	4
158	4	20	22	1
158	3	21	30	0
157	5	19	23	4
158	6	19	16	4
158	5	12	6	2
158	4	10	-10	0
157	1	17	-23	11
159	3	13	-13	14
158	-1	12	-3	8
158	-1	13	-25	-6
158	4	18	-24	-26
158	2	26	13	-19
158	2	21	56	-7
158	4	18	31	-5
158	4	18	-7	-2
158	9	21	-1	-2
158	7	20	10	-1
158	8	19	10	11
157	9	17	-1	11
158	3	17	2	2
158	5	22	5	3
158	7	21	16	0
158	9	20	28	-1
157	9	20	10	0
157	5	17	-2	-2
158	3	19	-22	4
157	5	17	-32	8
158	3	18	-7	11
158	5	22	-12	7
158	4	19	-6	-4
158	2	19	12	6
158	4	21	14	13
158	1	19	25	15
157	5	19	28	10
158	6	21	36	0
158	5	16	48	-5
158	7	17	55	-22
158	6	16	27	-29
158	4	15	1	-14
158	5	16	31	-9
158	3	14	24	-10
158	5	16	-19	-7
157	5	19	-21	-5
158	4	18	-19	-6
157	6	22	8	-5
158	6	23	27	7
158	5	18	-1	7
157	7	18	-13	12
158	7	13	-14	14
158	5	13	-13	6
158	5	19	-14	10
157	3	18	-2	18
158	4	15	11	17
157	6	17	10	19
157	4	19	15	19
158	3	17	6	14
157	2	17	-1	13
157	3	18	-6	7
157	5	19	3	2
158	3	21	10	-4
158	5	19	16	-3
157	7	21	27	-5
158	6	19	27	-8
158	6	17	34	-6
158	3	20	23	-9
158	5	20	0	-7
158	7	19	-20	-2
158	6	15	-10	-1
158	5	16	9	0
157	1	18	-6	0
157	-2	15	12	10
158	-2	13	21	8
158	-3	18	25	4
157	4	19	39	2
158	14	21	22	5
157	9	23	-8	4
157	4	19	-15	-2
158	9	21	6	-1
158	11	22	-1	-5
158	4	19	-9	-10
158	5	22	-8	-17
158	7	19	0	-7
158	5	17	14	0
157	6	18	23	2
158	5	17	30	4
157	1	11	16	6
158	3	19	-19	9
158	5	19	-19	1
158	4	14	9	0
157	1	17	8	1
159	4	14	9	2
157	5	18	3	7
157	7	19	7	2
157	8	18	15	2
158	9	22	30	2
158	10	22	43	-5
157	7	19	15	-2
158	9	18	-4	-4
157	3	18	-24	2
158	5	21	-22	8
157	4	19	11	6
158	1	15	13	9
157	5	17	6	4
157	5	21	5	2
158	3	18	5	2
158	4	18	16	3
157	2	21	15	5
158	4	17	9	3
158	5	16	8	6
157	1	15	8	-1
158	1	15	4	-3
157	5	17	-8	0
158	4	17	-1	0
157	2	18	-1	0
158	6	16	-12	1
157	4	15	-1	11
157	3	15	15	16
157	5	13	22	15
158	2	13	16	2
157	3	15	9	-13
158	5	22	21	-21
157	7	21	55	-40
158	7	22	65	-26
157	5	21	42	-7
158	5	15	21	-4
157	5	17	-36	6
158	4	21	-36	10
157	2	22	-2	14
158	4	17	-2	13
157	7	17	15	16
158	10	20	11	19
157	8	21	13	15
158	5	21	10	13
157	3	18	8	8
158	4	15	-2	9
158	7	17	-32	6
158	7	24	-32	1
157	6	17	-29	-9
157	6	18	-38	-17
158	4	17	-1	-22
157	5	15	29	-17
157	5	15	25	-5
157	3	14	38	4
157	3	12	28	15
158	3	12	25	12
157	4	14	10	10
157	6	21	-17	5
158	9	27	6	2
158	11	22	9	2
157	8	19	12	1
158	6	18	21	7
157	4	17	20	0
157	4	17	24	-7
158	3	15	9	-5
157	1	17	-16	-1
157	3	19	-15	-2
158	0	19	9	-6
157	-1	17	14	0
158	4	21	10	2
157	7	25	-9	1
158	7	24	-28	8
157	11	22	22	13
158	16	21	33	4
158	11	23	10	10
157	9	22	22	11
157	5	18	11	5
158	8	19	14	4
157	8	21	22	-8
158	10	17	15	-10
157	5	17	8	-5
158	8	16	-1	-3
157	3	11	2	-6
158	5	15	2	-1
157	8	15	0	4
157	4	17	3	3
157	5	19	3	0
157	3	17	6	3
157	6	18	8	9
157	6	17	8	8
158	9	18	17	5
158	8	19	18	4
157	3	17	7	4
157	7	17	-2	6
158	6	16	-11	-2
159	8	16	-12	-1
158	8	18	-6	7
158	4	18	-5	7
158	-4	16	2	6
158	-7	15	21	6
157	-2	18	60	9
158	1	15	74	7
158	-2	14	19	3
158	-1	17	-13	4
158	2	17	7	2
158	3	22	13	-7
157	7	25	7	-4
158	8	22	2	1
158	5	18	-3	9
159	5	19	5	2
158	7	21	-7	-11
158	7	22	-9	-17
158	7	18	9	-24
157	7	19	-12	-21
157	8	21	-19	-12
157	9	18	-5	4
159	9	19	8	-1
158	7	19	19	-7
158	5	17	24	2
158	4	18	22	4
157	4	20	-5	-4
158	8	19	-15	-1
158	3	15	15	8
157	3	15	17	4
158	3	18	2	2
157	3	19	6	6
158	4	18	0	12
158	4	20	13	12
158	5	17	28	16
157	4	18	18	16
158	5	18	12	11
158	7	17	-8	9
158	1	17	-21	10
157	4	16	-12	9
158	5	17	-2	9
158	5	16	9	4
158	5	16	15	2
158	5	18	10	0
158	5	19	17	-4
158	4	17	16	-4
157	5	19	1	-4
158	8	22	12	-12
157	4	19	10	-24
158	3	18	-25	-19
158	5	15	-7	-11
157	7	13	24	-11
158	6	14	17	-5
158	5	13	23	8
158	5	18	17	2
157	5	19	9	-3
158	5	22	1	6
158	11	20	5	4
158	14	19	1	2
158	12	20	2	3
158	5	19	12	2
157	4	23	4	3
157	5	20	6	1
158	2	22	5	0
158	3	19	16	2
158	3	19	16	0
157	3	18	12	5
158	1	19	16	13
157	1	17	13	10
158	3	21	11	7
158	3	22	5	10
157	4	17	1	3
157	-10	18	0	2
158	-51	17	-1	-3
157	-65	17	-5	-7
158	-38	18	-7	-1
158	-16	15	-2	0
157	17	14	23	6
157	46	16	49	8
158	60	16	39	8
157	77	17	28	10
158	67	19	35	9
158	55	18	13	8
157	35	18	-21	8
157	13	18	-11	10
158	2	19	0	4
157	2	20	4	2
158	1	21	15	0
157	0	18	10	-4
158	-3	13	-8	-3
157	-3	11	-22	0
157	-5	14	-26	-1
158	-8	14	2	-4
158	-7	14	14	-2
157	-8	19	4	-2
158	-2	17	15	-2
157	1	22	-11	-2
157	0	21	-20	2
157	2	22	17	0
158	3	21	45	8
157	3	17	24	4
158	8	17	12	-9
158	5	22	6	-14
157	1	21	-16	-13
157	-3	22	2	-6
158	-2	25	9	0
157	-1	24	16	1
158	1	19	10	5
157	3	13	-7	9
158	1	11	-11	-1
158	0	19	-1	-1
158	1	21	14	0
158	1	17	26	-6
159	3	18	33	0
158	5	19	3	4
158	6	19	-20	9
158	4	17	0	8
158	5	15	-1	4
157	5	16	-8	7
158	4	19	2	2
157	6	18	-2	0
158	3	15	10	0
158	3	15	22	4
158	3	18	27	0
158	5	19	21	2
158	10	22	22	-1
157	9	16	33	-4
157	7	17	18	2
158	5	19	-5	3
157	1	18	-13	4
159	1	16	-2	0
157	-3	14	5	7
158	2	17	12	11
157	8	18	17	13
157	11	22	12	11
158	7	21	14	4
157	10	21	16	-7
157	17	25	19	-21
157	16	21	18	-18
158	10	19	10	-3
158	7	19	7	-1
157	4	21	0	-8
157	5	20	-7	-7
157	3	18	-11	-3
158	5	18	-9	0
157	8	18	-3	2
157	4	19	-1	0
158	2	18	5	3
157	5	14	-7	6
158	4	13	-4	6
158	4	17	22	5
158	5	15	23	9
158	7	19	20	12
158	6	22	-2	14
157	5	20	-13	13
157	3	14	6	2
158	1	14	1	-4
158	4	23	1	-9
157	3	20	-1	-2
158	6	18	15	3
158	3	19	36	3
157	4	16	18	4
158	5	15	-12	0
157	5	17	-35	1
158	6	17	-5	-3
157	4	16	4	-1
158	3	18	-6	3
158	5	17	5	3
158	6	18	21	4
157	9	19	53	4
157	9	17	48	7
158	9	15	25	9
157	5	19	29	7
158	4	17	40	-1
158	1	15	30	-6
157	0	19	-1	-7
158	2	19	-16	-3
158	3	19	2	-2
157	3	17	-11	-1
157	3	16	-16	-1
157	1	19	13	-6
157	2	17	-6	-6
157	7	21	-2	2
157	8	22	5	9
158	8	23	6	2
157	10	22	21	8
157	9	22	17	8
158	4	18	22	7
158	5	19	18	8
157	5	17	10	4
158	11	16	12	0
157	8	19	0	0
158	2	18	-14	2
158	0	19	-28	-2
158	1	19	-28	-1
157	2	21	5	2
158	4	19	17	8
158	3	16	6	11
158	0	14	12	7
157	3	16	19	6
158	3	14	29	4
158	4	15	33	2
157	5	17	23	-6
157	3	18	-9	-14
158	2	19	-14	-17
157	1	22	-4	-13
158	5	23	-8	-4
158	4	19	4	2
157	1	18	-6	9
158	14	19	0	11
158	33	19	3	2
157	21	19	1	-7
158	5	17	10	-6
157	3	20	20	3
157	-4	18	24	6
158	-6	15	-1	5
157	-13	15	-4	2
158	-13	14	9	0
157	-2	16	22	3
157	10	15	35	8
158	9	11	24	2
157	11	18	-4	-2
158	12	19	-22	-1
158	4	20	2	-3
157	8	17	-3	4
158	8	13	-7	8
157	10	17	13	2
157	14	19	3	5
157	4	18	8	2
158	-34	18	10	2
158	-50	18	13	6
157	-32	18	17	5
158	-25	18	18	1
157	-3	19	16	4
157	5	15	14	8
157	3	14	15	3
157	9	15	12	6
158	51	17	8	5
158	102	19	-2	1
157	89	19	-6	-2
158	64	21	-10	-7
158	38	23	13	-13
158	25	24	29	-10
158	17	22	5	-6
157	-1	23	-28	0
158	-7	22	-25	6
158	-21	22	20	3
157	-25	18	9	0
157	-29	15	2	-2
157	-27	17	7	1
158	-7	17	20	-2
157	-6	19	57	1
157	-2	19	37	4
157	0	18	8	-4
157	0	21	0	-2
158	6	21	-1	2
158	16	21	-1	2
157	11	19	8	5
158	-8	15	14	6
158	-26	16	5	0
158	-42	19	2	-1
158	-53	19	5	2
157	-53	19	4	1
157	-30	18	6	-2
158	14	17	13	-1
158	40	17	3	-1
158	55	18	-1	2
157	73	15	4	0
157	77	16	5	4
158	112	14	-9	9
158	108	13	-12	1
157	56	18	16	-2
157	29	17	31	4
158	-24	19	9	2
158	-55	20	18	2
158	-99	18	22	6
157	-103	17	8	5
158	-28	19	-16	7
157	-44	17	-23	10
157	-90	21	-14	7
157	-78	23	-6	9
159	-44	16	16	11
157	-9	18	13	-1
158	23	18	3	4
158	52	14	2	3
157	78	11	18	-14
157	95	14	24	-16
158	102	23	11	-6
158	79	24	19	-1
158	46	24	14	-1
157	29	24	15	-1
157	10	24	9	-5
158	-8	16	3	-6
158	21	13	10	-4
157	62	14	10	3
158	55	16	6	4
157	24	17	6	7
157	3	18	12	10
158	-61	16	6	10
158	-115	19	6	7
157	-140	14	6	7
158	-96	10	-9	8
157	-24	16	-17	2
157	-79	14	-1	2
158	-97	9	20	-4
157	-7	13	17	2
157	140	18	25	8
157	161	23	33	1
157	97	26	29	-6
157	45	27	5	-5
157	-25	29	-22	-6
157	0	32	13	-7
157	-6	27	26	0
157	-11	24	12	-2
157	3	14	-3	7
158	-9	14	-32	4
157	-9	17	-1	1
158	-33	11	14	7
158	-29	15	5	7
157	-13	14	13	4
158	15	15	5	1
157	37	17	12	6
158	43	11	10	6
157	36	11	13	0
158	49	15	5	-2
157	55	19	-14	-6
158	30	22	-3	-5
158	18	24	7	-3
157	1	21	6	-2
158	-2	21	8	-3
158	-3	17	6	2
157	0	19	8	6
158	-8	18	13	7
157	-46	15	13	4
157	-89	14	16	-1
158	-62	14	13	4
157	-5	18	13	4
157	5	17	10	-3
158	40	19	-23	-4
158	66	22	-22	-5
157	83	18	1	-2
158	82	22	4	1
158	48	20	45	9
158	29	18	66	13
158	-3	17	48	13
157	-19	15	29	12
157	-22	15	10	-4
158	-19	17	-14	-4
157	-16	21	-35	1
159	-5	19	-12	2
158	-3	15	20	6
157	0	17	-11	-4
157	4	21	-34	-8
158	-7	17	13	-1
158	-31	20	11	2
157	-45	18	19	4
159	48	13	24	4
157	122	17	-4	-3
158	77	22	9	-9
157	61	17	-20	-5
158	59	14	-17	-5
158	21	13	26	0
158	-73	15	24	3
157	-125	15	1	-2
157	10	16	-15	2
158	54	18	-1	-6
158	-44	14	15	-4
157	-41	21	6	2
157	-42	26	21	2
157	-87	28	20	-1
158	-111	27	11	-1
158	-105	24	18	7
158	-19	23	4	0
157	7	24	-9	-5
157	2	25	-7	-1
158	15	21	13	1
157	7	23	19	4
158	27	19	15	10
157	32	19	9	8
158	38	18	7	6
158	41	10	20	6
158	51	15	25	2
158	53	15	21	7
157	38	18	-7	2
157	32	21	-6	7
157	24	19	16	6
158	21	19	11	5
157	18	18	13	8
157	20	19	4	2
158	15	15	3	0
158	10	17	8	-3
158	7	17	-1	0
158	7	17	1	2
157	7	18	-13	4
158	4	14	-5	8
158	7	14	3	16
158	4	13	16	15
158	9	17	37	5
158	10	19	33	-6
157	-14	20	31	-13
157	-31	21	21	-13
157	-16	18	13	-6
158	4	19	15	-4
158	31	14	15	-1
158	47	14	-12	6
158	39	17	-30	5
158	24	19	-13	-1
157	-2	23	-20	-8
157	-2	21	-22	-8
158	-8	24	-23	-8
157	5	25	8	0
158	5	24	30	4
159	-36	22	6	4
157	-31	19	22	9
157	7	20	16	2
158	25	22	24	3
158	22	16	27	2
158	24	8	8	4
158	57	8	-5	4
158	77	12	-13	3
157	54	15	17	2
158	14	19	17	2
157	-23	15	22	3
158	-9	16	2	5
157	32	25	-32	4
157	24	24	-1	4
157	-2	18	25	9
157	-6	15	27	0
158	-31	9	16	-6
158	-61	-1	-16	-5
158	-110	-9	-16	-6
157	-61	0	12	2
157	103	11	7	-2
157	117	19	8	-2
157	33	27	7	3
158	-35	32	2	0
157	-88	43	-2	7
158	-93	50	0	7
158	-128	43	14	1
157	-86	29	13	4
157	35	28	13	5
158	33	18	17	-1
157	17	8	17	-7
158	26	17	17	-5
157	25	15	23	-2
158	35	22	21	-1
157	22	18	16	7
158	28	7	12	14
157	28	-1	10	10
158	30	8	10	9
157	42	25	7	10
157	48	30	12	6
158	37	23	6	3
157	25	18	-4	-12
157	25	13	0	-25
157	11	9	4	-20
158	5	14	2	-10
159	-7	33	7	-7
158	-37	60	10	0
157	-93	47	-12	9
157	-73	24	-21	10
158	41	8	-8	9
158	79	9	5	8
158	84	16	11	9
158	106	11	6	0
157	49	14	7	-4
157	-2	13	17	-4
158	-39	22	20	-4
157	-8	21	14	2
158	-9	23	9	-1
157	-60	21	18	-4
158	-33	19	21	0
158	-42	17	20	4
158	-21	10	13	11
157	-9	4	6	10
158	-5	13	6	-2
158	4	13	9	-1
158	0	5	12	7
158	24	14	-7	5
158	56	10	-5	-3
158	51	10	-33	-3
157	33	14	-36	-7
159	40	14	4	-1
157	-9	10	1	2
158	-50	7	29	-3
158	-41	8	29	-1
158	33	10	-12	-1
158	104	13	-45	6
158	93	7	25	8
158	46	14	74	11
158	-13	21	22	10
157	-85	26	31	3
158	-170	32	32	4
158	-130	21	38	12
157	-35	23	19	10
157	-20	31	-21	0
158	-22	38	-28	-5
158	-13	37	6	-6
158	-16	29	3	-2
157	10	22	-26	3
157	35	15	-2	1
158	45	18	5	2
157	57	12	10	-3
157	57	2	8	0
157	52	-5	11	4
158	32	4	8	-1
157	22	14	-4	2
158	15	13	-2	2
158	14	3	-3	11
159	11	-1	2	8
157	10	14	-3	1
158	24	24	17	10
158	27	29	46	10
158	33	33	85	11
158	39	38	72	8
158	34	70	-22	-4
158	36	95	-34	-5
157	32	36	19	-12
158	8	13	19	-22
157	-1	25	8	-18
158	-3	5	-42	-7
158	-5	17	-49	2
157	-1	8	15	8
158	-5	6	3	6
157	-14	-1	-2	-1
158	-18	-1	17	4
157	-19	10	18	9
157	-11	8	3	7
157	-9	17	-16	-1
158	-6	18	-5	-10
157	0	18	-3	-8
157	-11	10	4	-1
157	-20	13	11	1
158	-67	15	17	6
157	-83	22	27	0
157	-15	24	26	0
157	5	22	-1	4
158	26	24	-7	2
158	59	17	20	2
158	77	14	15	4
157	92	10	9	1
157	83	11	4	10
157	58	-1	7	16
157	45	-15	11	18
157	41	-11	14	19
157	14	14	22	18
158	-6	40	15	10
158	-40	32	13	-9
157	-101	24	1	-8
157	-124	22	-4	-8
157	-29	29	4	-5
157	40	30	11	-7
157	-4	28	13	-8
157	1	31	8	-1
157	-11	20	7	7
159	0	14	-6	8
158	22	17	-3	4
158	43	17	-2	7
158	96	14	2	-8
158	69	17	13	-13
158	-3	17	13	-9
158	-13	22	12	-6
158	-42	24	17	-4
158	-113	17	23	-5
158	-150	12	12	0
158	-32	14	-11	2
159	96	22	17	0
157	23	26	48	2
158	27	21	33	4
158	-20	17	7	9
157	-41	11	-27	9
157	28	16	-30	-2
157	15	19	-1	-4
157	22	19	3	0
158	8	24	3	1
157	21	25	-5	-1
158	2	22	-23	4
157	-3	16	10	2
158	1	11	33	0
158	7	10	7	2
157	36	13	8	-5
158	47	20	25	2
158	42	19	47	0
158	21	22	24	6
157	30	28	-39	15
157	32	30	-44	2
157	28	27	5	-4
158	35	15	5	-6
157	12	3	8	0
158	-3	10	13	7
158	-10	17	3	8
158	-11	-15	13	7
157	-13	-16	-10	2
158	-7	-3	-11	0
157	6	-1	-4	-1
158	10	18	12	3
157	-28	13	38	1
158	-92	21	39	3
157	-78	43	9	1
158	-33	82	-9	-4
158	16	72	5	4
158	72	9	13	6
157	79	17	24	8
158	106	23	15	-2
157	90	16	14	0
158	37	32	8	2
158	-18	33	3	6
158	-16	41	10	3
158	33	36	7	-8
158	-13	36	6	-4
158	-1	29	6	-1
158	-11	27	14	1
157	-15	23	18	-1
158	7	5	36	-5
158	-5	-3	31	-4
157	8	0	-10	3
158	-2	2	-43	7
158	-2	-16	2	11
157	-9	-6	26	2
158	38	17	1	0
158	53	14	5	2
157	15	7	-16	-6
157	44	15	-9	0
157	2	15	1	6
158	-115	9	12	-4
157	-184	5	15	-5
158	-31	6	11	-1
158	106	15	15	-1
158	8	16	13	0
157	3	33	27	-1
157	-41	49	24	3
157	-52	26	19	3
157	-1	7	34	1
157	-22	11	54	5
157	16	10	-22	14
157	9	23	-83	19
158	18	24	-23	7
158	25	20	7	-4
157	22	24	6	-7
158	26	22	19	-11
157	19	19	10	-10
159	22	15	-10	-9
158	12	19	-10	-6
158	9	14	7	-8
158	-11	12	8	0
158	-24	3	15	12
157	-33	6	21	9
157	-24	15	14	-1
157	-24	11	15	0
158	-8	2	21	8
157	65	5	20	4
157	89	13	15	9
158	52	16	18	5
158	63	25	13	9
158	99	43	12	9
157	72	52	2	-2
158	28	24	0	1
158	-36	39	5	3
157	-27	41	2	4
157	55	9	6	5
158	38	24	4	0
157	12	11	6	-7
157	-12	14	2	2
158	-35	27	5	3
158	18	9	0	3
157	30	-17	8	3
158	-30	-30	14	-1
157	-44	-6	4	3
157	-9	26	6	0
157	-60	42	10	-4
158	-118	24	29	-12
158	-75	16	22	-9
158	25	46	6	-3
158	70	41	-18	0
157	66	26	-19	0
157	40	68	12	3
157	27	56	13	-1
158	22	-2	5	0
157	-67	11	-12	7
158	-115	7	20	4
157	-90	-2	38	7
157	-118	12	10	3
157	-180	9	-18	6
157	-64	23	-33	8
158	22	24	9	9
158	94	15	7	9
157	177	4	14	-7
159	181	-4	22	-12
157	231	-18	19	-7
158	166	1	40	-4
158	83	42	37	4
158	28	70	2	3
158	-8	62	-43	5
158	-34	41	-4	1
157	-31	59	6	-1
157	26	38	-11	1
158	52	21	0	-6
157	46	1	7	0
158	-37	-40	33	2
157	-120	1	15	-1
157	-138	18	-4	2
157	-129	-7	0	2
158	-75	-4	20	9
158	37	11	13	11
158	55	-1	19	14
157	82	-6	43	17
158	66	8	69	14
158	19	2	66	4
157	5	13	-38	-9
158	-32	21	-95	-8
158	-7	18	-16	-10
157	-7	28	31	-5
157	0	47	23	-1
157	-1	37	29	-4
158	1	25	-29	6
158	3	27	-53	1
157	-1	22	-1	-1
158	5	19	8	5
158	-1	19	-10	7
158	14	13	-10	8
158	1	12	-22	-2
157	-8	17	-5	2
157	-27	14	36	2
158	-48	11	32	-2
157	-42	17	24	1
158	-3	16	42	0
158	50	13	53	-2
158	88	22	21	-3
158	90	49	-30	0
157	65	52	-17	-1
158	75	16	-19	-6
158	60	11	-11	-4
158	24	15	4	4
158	17	18	-12	1
158	10	25	18	3
157	-63	20	11	10
158	-117	22	21	8
158	-164	11	22	7
157	-99	15	14	7
158	23	18	21	4
157	-6	18	23	2
158	15	20	35	9
157	10	22	6	12
158	9	24	2	3
157	19	17	6	-2
157	1	14	-12	-2
157	-9	8	-8	-11
158	-60	6	-4	-9
157	-50	6	-1	-8
158	12	15	8	-2
157	69	13	6	2
158	99	11	3	-2
157	111	15	1	-1
158	101	16	8	-3
157	50	9	10	-1
158	11	-5	8	-3
158	-4	-7	16	0
158	-45	4	22	8
158	-67	26	29	10
158	-105	48	57	8
157	-87	41	73	0
158	-4	26	8	2
157	6	14	-82	2
158	41	19	-37	-4
157	77	59	10	-6
157	117	106	-7	0
158	135	75	15	3
157	96	3	6	13
158	74	-2	5	10
157	31	-12	5	3
158	-1	-32	1	0
158	-11	-10	17	-4
158	-2	22	30	-2
158	-28	36	56	-6
158	-48	14	35	-9
157	-32	10	-24	-3
157	43	23	-47	1
158	48	17	8	0
158	-16	15	5	0
158	0	15	-3	1
158	-88	12	13	8
157	-144	5	15	7
157	-114	2	45	8
158	-51	-1	38	4
158	-31	-3	16	2
157	-17	8	-25	10
158	45	12	-32	8
158	16	6	-32	-2
158	69	3	-8	-7
157	59	14	8	0
157	69	33	-8	-5
157	113	51	17	0
158	77	54	13	7
158	35	41	15	7
157	-70	29	1	10
158	-109	11	-8	-1
158	-35	18	-3	-5
157	5	34	8	2
157	12	24	21	3
157	0	27	9	4
158	-69	35	11	4
158	-63	49	10	7
158	-87	42	20	10
158	-58	6	24	-2
158	11	7	33	-8
158	9	7	29	-1
157	58	3	-1	3
157	93	11	-8	9
158	128	3	3	12
158	120	1	1	10
157	82	7	-22	2
157	48	15	-4	-11
158	11	8	0	-13
157	9	25	-11	-7
158	10	29	7	-3
157	-14	16	6	0
158	-22	22	14	7
157	-18	17	9	4
157	-21	19	8	-5
157	-9	16	10	-2
158	-18	11	17	4
157	-27	2	40	3
158	-33	3	28	6
158	-29	9	-3	12
158	-20	9	-22	1
159	-19	10	12	-1
158	-7	-4	17	-1
157	22	3	-23	-9
157	42	26	1	-4
158	72	28	16	-9
157	122	28	8	-6
158	107	41	6	-3
158	41	46	24	-2
158	56	44	41	4
157	51	36	19	7
157	-82	16	-11	19
158	-164	21	-10	16
158	-208	36	50	8
157	-186	18	37	3
158	-101	-2	-31	4
158	-25	14	-65	6
158	53	18	-8	-3
157	127	19	26	-8
157	169	24	-10	-13
158	157	29	11	-10
157	138	22	2	-6
157	27	-10	13	-6
158	-78	-35	13	6
158	-103	-26	10	3
159	-20	48	24	0
158	3	96	19	-1
157	-43	23	25	-1
157	-11	-8	19	1
158	-3	29	38	-2
158	3	19	44	-2
158	-24	16	60	4
158	-8	8	57	6
157	30	19	-35	4
158	54	27	-89	9
157	85	11	-38	10
158	38	4	-16	15
157	-51	6	0	10
158	-114	14	13	3
157	-79	19	-10	2
157	-59	23	-1	-4
158	-13	25	4	-7
158	108	24	6	-5
157	161	18	-2	-7
157	154	38	3	-11
157	150	41	12	9
157	135	17	8	12
157	81	-1	15	10
157	23	5	12	7
158	-11	42	13	1
158	-19	28	10	3
158	-56	17	24	6
157	-112	11	28	3
157	-183	-4	2	-1
157	-129	14	-17	4
158	1	24	10	4
157	-40	66	21	4
158	-58	67	6	6
158	-70	9	5	2
159	-110	-23	-1	0
158	-67	-36	22	1
157	54	10	28	4
158	105	22	26	0
157	99	-14	5	3
157	156	-2	-17	0
158	140	7	25	-2
158	48	17	33	0
157	-31	21	-2	-7
158	-8	22	-29	2
158	-22	30	-13	2
158	-24	32	6	-1
158	11	34	0	5
157	-22	25	9	7
158	1	15	9	1
157	-8	17	8	3
157	-45	30	-16	-1
157	-64	35	-15	-3
157	-36	37	17	2
157	-25	26	3	-8
157	-29	24	4	-7
158	10	28	7	-2
157	-1	18	13	-2
158	18	11	22	3
158	5	-6	17	4
157	-33	-12	8	8
158	-23	52	3	7
157	16	91	13	3
158	61	29	13	-2
157	90	16	15	-8
158	121	13	48	-4
157	119	-18	69	11
158	82	-6	37	10
157	43	22	-59	-3
158	11	31	-75	-3
158	1	12	7	-5
158	42	13	1	-1
159	63	15	-7	-5
157	88	10	-2	-4
157	77	17	-7	-4
158	-14	11	13	-5
158	-45	12	4	1
157	-81	12	16	5
157	-122	15	24	10
157	-129	13	25	2
157	-56	14	13	9
157	-16	13	4	7
158	-79	18	4	-2
157	-46	13	14	5
157	-6	2	27	2
157	22	15	1	-1
157	37	17	-12	1
157	34	14	1	2
158	8	22	12	9
158	-9	44	11	11
158	-75	40	16	4
158	-213	7	14	6
157	-158	12	15	2
157	-8	17	17	-5
158	53	18	42	-2
158	88	24	66	-1
157	155	18	8	3
157	179	28	-62	4
158	135	22	-21	-4
157	88	11	0	-2
157	31	9	-26	-4
158	-12	13	11	1
157	-12	16	1	1
158	-17	24	1	-2
157	-21	28	7	-1
158	8	22	2	0
157	15	19	18	4
157	28	17	18	9
157	-5	15	28	10
157	-100	14	20	0
158	-101	11	-1	3
158	-26	10	12	2
157	4	7	35	-21
157	38	11	-3	-20
157	104	13	-31	-11
158	127	7	-5	-6
158	100	17	4	0
157	65	10	2	3
157	23	6	10	7
157	-47	14	22	6
158	-26	30	45	11
157	67	61	53	11
158	53	46	10	9
157	24	38	-34	13
158	20	43	-27	3
157	-17	30	10	2
158	-81	17	13	-1
158	-78	13	2	-1
157	19	22	-3	0
158	-3	7	4	-3
158	10	5	29	1
157	43	9	22	6
158	-16	-7	-8	9
157	-66	-7	-19	11
158	-126	19	2	10
157	-161	8	12	6
157	-99	1	16	6
158	-24	18	15	3
158	-23	18	4	-9
158	14	22	1	-13
158	26	20	-2	-2
157	57	13	15	3
157	80	8	35	17
157	42	37	42	13
157	-27	96	10	-6
157	-140	74	-35	-3
157	-118	7	8	5
158	-39	15	12	3
157	11	-2	-37	3
157	165	8	8	0
157	229	55	15	6
158	242	42	5	8
158	199	8	13	2
157	23	-2	3	-2
157	-55	17	10	-7
158	-45	22	0	-6
157	22	24	13	-2
158	16	-4	18	4
157	-8	-10	15	2
157	80	9	7	7
157	43	-6	0	9
157	-4	4	-2	-5
157	6	7	5	-6
157	-26	5	10	3
157	-120	-4	3	3
158	-117	-3	10	2
157	-43	0	19	6
158	-59	-6	24	-2
158	-1	9	-1	0
157	9	26	-24	-1
158	24	36	-2	-4
157	18	35	8	5
157	-3	39	16	4
157	10	47	46	6
158	-24	60	55	8
157	-10	56	36	-1
157	6	41	15	-8
158	11	19	17	-9
158	5	0	-15	-6
157	20	11	-71	5
157	40	13	-9	3
158	15	10	9	0
158	1	26	-21	6
158	3	22	19	6
157	22	11	7	2
157	21	22	8	-1
158	10	22	14	-1
158	1	7	20	1
158	-17	-16	21	7
157	-3	-29	-14	13
157	11	27	-15	4
158	20	73	15	-3
158	3	55	43	-5
158	-70	46	19	-7
157	-141	20	-17	-6
157	-69	-3	-27	1
158	25	11	2	8
158	54	2	19	7
157	106	3	19	2
158	131	9	18	6
157	123	16	1	0
158	46	17	10	-1
158	-24	8	-15	5
158	-93	15	-12	-1
158	-95	2	20	-2
157	7	-6	8	0
158	40	1	16	-2
158	86	23	14	-1
158	74	66	10	3
157	8	50	10	4
157	-12	23	2	-2
157	35	33	9	-7
157	88	4	29	-10
157	59	15	38	-3
157	57	15	7	-2
157	54	15	-34	9
158	-10	24	1	8
157	-118	14	41	3
159	-123	24	25	2
158	-40	12	3	-5
158	-36	19	-45	-4
158	-18	13	-12	-4
158	9	11	15	-2
158	-8	17	1	0
157	12	11	16	2
157	45	7	3	-3
157	36	0	16	-9
158	28	-1	5	-5
158	48	5	8	-1
158	-13	11	9	-1
158	-128	16	9	1
157	-186	22	16	9
157	-126	24	9	15
157	-27	29	21	12
158	5	29	14	1
158	63	32	10	0
158	82	46	10	2
157	96	45	30	4
157	120	31	40	10
158	86	16	17	17
158	47	19	-4	14
158	17	25	-5	4
158	9	26	-5	4
158	9	19	-34	-2
157	4	22	-1	-6
158	-27	31	19	-7
157	-27	9	30	-13
158	-53	6	61	-11
157	-20	-1	17	-12
157	34	-15	-48	2
158	-3	16	-62	10
157	16	46	-31	6
158	-84	43	-23	7
158	-237	31	6	1
159	-183	34	16	6
157	24	29	10	12
158	81	32	13	8
157	108	44	-1	5
157	196	23	17	0
157	254	-7	14	-1
158	283	-56	20	0
158	113	-40	11	-2
157	-6	22	12	-1
158	-62	1	16	4
157	-118	-25	17	6
159	-112	-31	29	6
157	-35	-34	31	3
158	18	0	28	6
157	-49	22	-6	4
158	-25	77	-11	-14
158	-20	136	0	-12
158	-13	77	1	-4
158	-25	2	10	0
158	-46	32	7	1
157	-12	32	8	3
157	-1	14	6	4
158	42	24	5	0
157	65	13	10	2
158	58	17	14	3
158	28	3	15	4
157	17	6	12	4
157	-27	9	19	0
157	-124	6	20	0
158	-188	0	23	10
157	-101	0	9	7
158	30	19	-17	-3
158	85	22	-12	1
157	125	23	-9	3
158	158	26	-3	-5
158	155	28	9	-2
157	86	37	23	4
157	27	46	45	8
157	-31	41	40	5
158	-32	23	-4	7
157	-16	29	-49	7
157	-29	27	-1	7
158	-24	11	22	6
157	-31	4	-14	-4
158	-19	9	-9	-3
157	-24	15	21	0
158	-29	9	50	11
157	-31	9	12	11
157	-14	12	-12	-16
158	0	13	-18	-24
158	-7	9	-39	-8
158	3	9	-40	-10
158	-3	12	3	-8
157	4	14	17	8
158	-1	15	9	7
158	-8	11	18	9
157	-10	0	13	4
157	-16	-1	24	7
157	-15	11	6	6
158	-33	23	4	6
158	-34	16	17	8
157	28	9	28	4
158	51	1	26	10
157	25	1	1	4
157	24	26	-4	-3
158	92	67	35	-7
157	142	67	84	-3
158	81	41	79	-4
157	45	38	-29	6
158	-1	30	-109	19
157	-1	7	-19	4
158	32	11	2	7
157	-2	18	-9	-1
157	-73	8	19	-1
157	-93	17	5	7
157	-26	15	23	4
158	-43	15	5	3
158	-13	17	9	-2
158	61	12	13	3
157	48	14	27	1
158	30	9	48	-6
157	0	25	10	-10
158	-34	34	-27	0
157	-21	18	-16	-2
158	-2	23	13	-5
158	-5	15	-5	-4
157	-18	5	8	-6
157	-20	16	5	-4
158	5	19	1	-6
157	35	51	12	-8
158	40	52	12	-3
157	25	9	16	6
158	34	10	11	0
158	84	-3	17	6
157	85	6	18	8
157	35	22	26	0
158	13	-11	20	9
157	-38	-12	-2	17
158	-166	-16	10	24
158	-330	-15	26	18
158	-365	7	6	8
157	-188	45	-8	0
158	-2	76	-9	-10
157	152	24	-3	-14
158	263	14	6	-13
158	341	32	2	-2
159	336	26	3	-2
157	207	49	4	0
158	79	35	8	3
158	-30	21	5	2
157	-41	3	5	12
158	-18	13	33	9
158	11	18	67	13
157	11	-9	19	9
158	19	-3	-84	0
158	28	0	-34	-18
158	-82	37	13	-31
159	-132	45	-5	-18
157	-66	24	31	-15
158	-26	24	29	1
158	-70	-1	32	0
157	-58	25	-1	6
158	-23	35	-31	7
158	-8	34	-18	-1
158	10	49	-1	2
158	-15	12	16	4
157	-14	9	10	7
157	-5	15	8	8
157	29	17	4	9
157	39	15	8	2
157	12	12	13	12
157	5	13	21	13
158	-12	11	34	7
158	-9	4	37	1
157	17	8	26	0
157	28	20	-4	8
158	13	12	-50	8
157	0	15	-33	3
158	-9	22	13	-5
158	3	19	-4	-3
158	33	7	9	-1
158	42	-38	8	-2
157	43	-71	8	-1
157	28	-54	16	0
158	24	-41	12	2
158	8	-43	36	0
157	-33	-32	58	1
157	-34	-27	57	4
158	-7	3	-42	12
157	-14	41	-63	14
158	-24	61	15	6
157	-13	50	13	0
158	-9	19	17	-5
157	7	43	18	-3
158	16	58	13	-4
157	26	24	17	5
157	36	14	-17	14
159	36	39	-8	12
157	29	41	8	12
157	22	41	0	10
158	-8	45	12	11
158	-5	41	30	3
158	31	45	42	-8
158	-3	42	26	-12
157	-75	46	-11	-2
157	-143	39	-18	6
157	-9	24	-12	-4
157	108	17	-18	-6
158	31	32	-6	-9
157	2	39	1	-12
157	-21	42	25	-14
157	54	45	63	-15
158	86	42	51	-6
158	29	44	-13	-6
157	4	40	-77	2
157	25	34	-35	4
158	78	48	25	1
158	37	79	4	3
157	71	36	12	-2
158	58	-4	12	-4
158	-24	20	17	-2
158	-15	16	26	2
158	11	30	11	3
157	-7	24	10	10
157	-50	25	-3	11
158	-83	25	15	13
157	-66	-1	19	13
158	-33	1	1	0
158	-27	-17	2	0
157	-16	-22	12	1
157	0	24	10	0
157	36	75	18	3
158	32	53	33	-3
157	23	18	17	-1
158	-13	7	-15	0
158	-34	10	-11	2
158	-31	33	8	6
157	-64	21	-6	12
158	-36	5	-1	7
158	1	7	4	1
158	41	-2	0	4
158	80	-24	5	4
157	80	-21	6	7
158	-18	-16	17	3
158	-115	-6	15	6
158	-1	9	12	3
157	86	18	18	0
158	52	22	29	-4
158	4	21	5	-10
157	-66	25	-17	-5
157	74	26	3	-9
157	130	22	8	-4
157	15	32	6	1
158	12	69	10	2
157	30	91	10	4
158	82	67	17	-1
157	79	37	16	4
158	20	1	15	3
157	-62	-34	12	6
158	-36	-21	12	7
158	24	9	9	1
158	-42	-18	0	-1
158	-30	-18	3	-2
157	-37	-2	4	2
158	-35	-8	12	4
159	-11	18	43	14
158	-18	25	89	15
157	1	7	77	4
157	2	24	-56	2
158	19	39	-104	-6
158	19	23	-17	-11
157	24	8	-34	-11
158	11	-10	-22	-12
158	-37	-11	-2	-7
157	-62	5	-20	-7
157	-49	0	15	-6
158	-38	22	12	9
158	-52	81	30	9
158	-16	93	17	0
157	35	19	5	-4
158	62	-1	0	-8
158	70	-12	-1	-5
158	58	-15	15	4
157	37	37	5	0
157	24	46	15	3
158	18	34	5	8
157	8	26	12	11
157	7	25	17	10
158	6	17	22	4
158	8	24	33	0
158	10	19	16	-5
157	4	8	-4	-6
158	8	0	-1	-4
158	2	-8	23	3
158	-20	0	16	10
158	-2	10	21	9
157	16	10	39	7
157	-9	2	54	-5
157	-11	-2	32	-3
157	11	2	-11	1
158	-75	6	-27	2
158	-157	31	-39	4
158	-86	49	-17	0
157	-73	34	-22	6
159	-49	26	-10	7
157	71	20	20	10
158	158	36	7	5
157	186	50	24	1
158	172	22	25	-1
158	121	-4	27	-6
158	43	1	-10	4
158	31	1	-37	9
157	21	5	4	4
157	23	28	14	11
158	19	51	10	-1
157	-17	43	8	-3
158	-28	21	9	4
158	-47	36	10	-2
157	-42	32	14	2
158	-36	37	12	2
158	4	31	12	-4
157	19	23	13	-1
157	-9	28	13	3
158	1	19	13	-2
158	-30	11	10	-1
158	-56	11	5	6
158	-23	25	16	6
158	8	24	37	9
157	-4	5	37	2
158	-10	-2	15	5
158	1	-6	-23	0
158	18	0	-41	-12
158	51	11	-25	-10
157	33	8	1	-5
157	11	5	15	-4
157	-25	14	18	-8
158	-44	19	19	2
157	-13	25	4	4
157	43	38	2	7
158	58	37	-3	-3
158	11	33	-1	-11
157	5	31	9	-4
158	19	26	14	-2
158	23	9	11	6
157	-26	-3	8	0
157	-38	14	31	-2
157	-113	16	77	-6
158	-205	-23	50	-6
158	-155	-20	-56	7
158	-67	58	-74	10
158	81	108	4	3
158	96	30	3	2
157	114	-46	1	1
158	120	-16	7	0
157	61	2	3	4
157	60	-16	22	3
158	-7	-20	22	8
157	26	13	56	7
157	36	22	67	9
157	21	24	27	7
158	33	33	-51	15
158	3	38	-79	10
158	-44	42	-9	-7
157	-92	28	-6	-2
157	-150	25	-15	10
158	-135	19	1	4
158	11	21	0	0
158	94	13	10	2
157	181	11	4	2
158	173	6	15	0
158	174	3	21	-6
157	233	17	18	-4
157	127	15	18	0
158	15	7	21	2
157	-55	21	22	-1
158	-70	77	10	2
157	-7	88	13	8
157	26	23	13	4
158	-21	-23	18	0
157	-61	-31	26	-2
157	-93	12	25	2
157	-141	28	15	4
157	-124	10	-16	9
157	-49	2	-15	2
157	-42	5	6	-2
157	-59	17	4	-5
157	-21	30	22	-13
158	-17	40	36	-12
157	26	29	20	-6
158	33	36	-21	6
158	43	48	-3	8
158	58	46	51	8
157	45	28	3	14
158	28	7	-45	16
157	10	2	-51	6
158	38	4	-16	-8
158	86	15	12	-6
158	85	13	14	-6
157	16	15	18	-6
157	8	18	8	-7
158	-26	23	16	0
157	-104	38	12	-2
158	-166	28	20	-2
157	-130	10	17	-2
158	-85	-11	14	3
157	-60	-17	15	7
158	45	10	7	-4
157	79	43	7	0
157	139	37	5	7
158	157	15	9	13
157	116	19	6	19
157	72	30	14	8
157	-24	13	29	-3
159	-60	-1	28	-9
157	-32	15	-1	-3
157	-5	12	-17	8
158	-102	3	-12	6
157	-208	-1	-13	9
157	-130	9	-4	11
158	-17	14	8	9
158	85	8	13	4
158	219	7	6	-3
158	234	34	7	-9
158	248	109	13	-7
158	142	74	27	3
158	-3	25	52	2
158	-16	65	29	-3
157	-38	24	-9	-10
158	-33	-6	-8	-2
157	-23	-27	11	9
158	29	-13	21	8
157	38	15	81	4
159	-6	-22	42	-1
157	-57	15	-128	8
159	-114	24	-102	3
158	-161	-8	10	-8
157	-142	6	-2	-7
157	-16	17	9	-11
158	1	19	17	0
157	-15	24	9	6
158	46	24	9	8
157	51	24	0	9
157	-44	13	21	6
157	-96	7	13	4
157	-6	17	6	-4
158	35	23	12	-4
157	26	18	17	-4
157	85	10	20	-7
157	175	5	16	-5
158	148	1	22	0
157	119	11	13	1
158	87	31	10	-2
158	-5	16	15	-1
158	-14	4	22	2
157	-29	24	33	0
157	-80	26	31	3
157	-138	34	-4	-1
158	-126	49	-23	2
158	-67	57	24	12
158	-66	49	50	7
158	-22	17	47	8
157	-37	7	-14	9
157	-85	29	-70	4
158	2	38	-17	-9
158	82	30	-12	-7
157	111	31	-15	0
158	139	5	5	0
157	132	9	-1	3
158	130	10	14	-1
158	82	3	8	3
158	60	4	10	4
158	21	2	10	6
158	-35	27	10	4
158	-23	29	10	0
157	-66	5	8	0
157	-122	-8	22	2
158	-102	-7	19	-1
158	16	4	17	0
158	49	13	18	-1
158	5	19	23	0
158	-25	22	5	4
158	-102	18	-25	11
157	-162	18	-12	5
158	-172	19	10	-3
158	-72	22	23	1
157	57	17	18	-12
157	116	15	-5	-4
157	177	39	-11	3
157	154	94	14	8
157	95	69	18	10
158	71	1	25	2
157	28	5	10	6
157	24	-2	-21	7
157	18	10	-1	3
157	3	15	6	2
158	-4	11	7	-2
157	1	19	14	-1
158	1	14	21	3
157	-15	20	42	3
158	-6	11	36	9
157	-6	11	3	10
158	-1	8	-11	7
158	-2	3	3	4
158	5	6	-16	2
157	9	6	-15	-8
157	-22	14	5	-6
157	-57	42	-15	-4
158	-57	42	-4	-2
158	-12	8	-3	-2
158	-1	-5	2	1
158	8	9	8	4
158	1	55	10	7
157	-15	29	27	16
158	11	12	28	10
158	20	30	34	2
158	44	7	13	-11
158	36	6	-14	-13
158	15	-12	-19	0
158	-10	-18	-4	-7
158	-107	19	11	-7
158	-111	47	47	4
157	-70	25	87	8
157	-91	10	33	10
157	8	28	-80	13
158	179	18	-75	3
158	243	-1	7	-11
158	202	3	6	-5
157	98	10	17	-7
157	17	19	6	-4
157	-18	28	-1	-3
157	-82	29	18	-4
158	-74	32	13	-2
158	-60	41	28	-6
158	-19	60	14	-4
158	3	46	5	2
157	-22	-4	7	9
157	15	10	13	2
158	-2	13	8	3
158	-9	6	-4	8
157	-56	15	14	2
158	-87	15	33	1
158	-105	27	49	1
158	-78	16	13	8
158	11	18	-21	22
157	47	14	13	19
158	113	22	15	6
157	123	34	-20	3
158	123	48	10	5
158	118	42	35	-1
157	74	1	17	-7
158	61	16	-42	6
158	41	13	-54	3
157	57	1	4	-2
158	33	-5	4	7
158	10	1	1	-4
158	-24	40	8	-10
157	-89	3	7	-2
158	-67	-14	16	-4
158	-43	15	19	-6
157	-19	22	20	-10
159	2	41	10	-1
157	-17	43	16	2
158	-25	46	16	3
157	-21	30	15	1
157	-73	16	25	0
157	-109	22	28	-1
157	-101	11	14	-2
157	-167	6	-22	6
158	-181	2	-12	7
157	3	7	4	6
158	120	12	5	6
157	163	0	31	4
157	222	-20	38	1
158	221	-30	30	-1
157	122	9	-1	-8
158	-12	94	-30	-2
157	-13	106	-8	4
158	-35	47	-1	0
158	-37	10	-8	0
158	3	-23	-1	3
157	4	2	2	2
157	56	11	6	0
158	11	-21	12	7
157	-42	2	19	11
158	-53	17	25	10
157	-110	19	20	6
158	-119	12	0	-6
157	-20	9	0	-6
158	42	9	42	-6
157	55	5	73	-7
157	97	14	4	-6
159	138	23	-92	14
158	137	22	-38	12
157	60	21	16	-7
157	38	38	-23	0
158	-37	28	-5	4
157	-54	19	-1	-4
158	1	26	10	-9
158	-16	36	23	-4
157	-38	54	13	-1
157	-71	44	27	2
157	-74	35	26	3
158	-25	40	26	8
157	51	23	-12	8
158	58	14	-9	-2
158	40	15	43	-3
157	39	6	58	3
158	-9	37	31	15
158	-109	51	-42	18
158	-109	2	-29	-1
157	-5	-8	-4	-7
158	-13	5	-29	0
158	-16	3	6	1
158	-4	24	6	3
157	4	17	5	-4
158	38	6	12	0
157	25	8	23	-3
157	34	12	51	-5
158	24	15	11	0
157	17	14	-24	0
157	28	-5	-16	0
157	55	-30	14	3
157	69	-17	10	2
157	39	-11	12	-1
158	-4	-10	25	-1
157	-109	2	17	2
158	-184	45	16	4
158	-213	89	4	2
157	-92	55	6	2
157	61	50	10	1
158	87	69	22	7
157	166	49	27	7
158	180	43	13	6
158	196	16	21	10
157	147	6	21	0
158	33	22	-26	-3
158	-63	13	-35	-1
157	-135	-10	-4	0
158	-38	-30	-1	1
158	0	-22	10	-1
158	0	15	13	-8
158	22	44	6	-9
157	49	26	13	-4
158	77	19	27	2
157	48	25	29	2
157	38	21	-11	8
157	36	13	-22	5
158	120	11	-2	0
157	160	19	0	-5
157	90	2	6	-6
158	-33	-10	16	0
157	-181	-12	23	2
157	-241	2	38	8
158	-259	6	63	4
157	-194	-9	54	0
157	-64	14	-37	4
158	-97	35	-72	9
158	-63	34	8	7
158	37	31	8	5
158	70	45	-40	-2
157	108	72	4	-7
158	99	93	10	-1
158	101	82	-3	6
157	63	73	0	9
158	9	50	3	6
158	-90	7	10	3
157	-112	-24	8	2
159	-3	-11	9	3
158	59	17	8	0
158	126	-10	11	-3
158	149	-19	18	2
158	158	-17	28	4
158	106	-29	27	7
157	21	-11	22	0
158	-26	1	14	-3
157	-44	7	9	-6
158	-20	5	15	-2
158	-102	4	6	1
158	-122	29	6	0
158	26	40	22	9
157	59	27	35	14
158	24	16	15	9
158	46	35	-26	-8
158	28	58	-24	-5
158	52	30	2	-3
157	79	52	-5	-7
157	33	75	6	-3
157	-33	27	30	-2
158	-30	13	34	-5
157	-54	-7	2	-3
158	-104	-5	-44	6
158	-23	13	6	7
157	8	10	22	2
157	-18	15	-7	-3
157	-13	11	-3	-2
157	-17	10	-8	-1
158	-13	9	9	-4
157	-4	14	8	2
158	6	15	14	9
159	12	17	19	6
158	46	11	18	2
157	82	9	7	6
157	33	9	1	3
157	-8	7	22	6
157	-20	2	25	7
158	-90	0	32	3
157	-157	11	21	1
158	-155	3	0	1
157	-109	11	-2	0
157	-38	19	-21	4
157	37	20	-12	0
158	45	42	12	-4
158	98	35	13	-6
158	169	18	8	-4
158	181	28	-13	-6
157	183	61	-18	-9
157	118	77	-6	-1
158	56	26	-2	2
157	45	11	7	-7
157	40	29	23	-5
157	-4	15	16	2
158	-54	27	2	3
157	-58	21	-4	9
157	-36	1	1	18
157	-39	-18	16	10
158	-61	5	17	4
158	-47	19	15	8
158	-35	0	18	4
157	-20	14	13	7
157	-4	7	13	8
157	14	15	12	6
157	26	15	9	7
158	34	21	4	-4
158	35	25	6	-4
157	5	18	2	3
158	-1	20	4	2
158	-10	18	16	6
157	-79	17	11	5
157	-82	3	9	3
159	-25	7	3	-6
157	23	10	8	-5
157	86	12	13	7
157	98	11	14	7
157	99	14	16	4
157	32	17	-5	7
158	-40	23	-3	7
157	55	28	59	0
158	131	35	93	-9
157	10	44	10	-11
158	-65	35	-111	5
157	-78	16	-72	8
158	-107	-3	5	-6
158	-151	4	-2	-10
157	-221	32	35	-8
158	-145	66	29	-6
157	-50	54	-11	2
158	19	44	-23	10
158	80	60	22	3
157	125	26	24	2
158	143	-9	1	-2
157	125	11	6	0
157	99	37	-15	7
158	30	-3	6	11
158	-4	-36	1	5
158	0	-19	23	-4
157	10	-10	41	1
157	-12	-12	33	-1
158	-26	-19	18	1
157	23	4	-3	2
158	105	20	14	-5
157	133	6	-7	-8
158	106	15	-9	-5
157	78	31	13	-6
158	83	36	4	-2
157	67	45	5	1
158	35	51	2	3
158	-38	73	4	8
158	-101	80	17	7
157	-90	22	13	-5
157	-112	9	14	-5
158	-35	3	14	-5
158	46	-1	19	-2
159	30	15	35	9
158	-21	-17	53	11
158	-63	-22	32	11
157	-77	4	-30	12
157	-103	-2	-51	8
158	-89	6	-20	-1
158	15	23	4	-3
157	20	27	23	-7
158	-7	35	23	-6
157	5	28	2	-2
158	-16	30	-3	-5
157	14	45	-1	-6
158	12	48	12	0
158	25	59	23	2
158	29	45	27	4
157	-12	18	14	6
158	-94	-3	-17	5
158	-125	-34	-10	2
158	-35	-20	18	-4
158	30	24	1	0
158	105	41	-29	4
157	132	19	-13	7
157	126	13	12	2
158	113	21	10	5
159	59	15	32	8
157	19	23	39	10
158	1	25	0	9
158	28	16	-32	-3
158	13	19	-20	0
157	-1	17	16	4
158	9	12	10	0
157	-11	12	4	0
158	-34	4	12	-2
157	-38	-5	46	4
157	-20	-2	78	11
158	-17	7	2	10
158	-10	15	-59	11
157	-40	47	4	5
158	-48	77	18	-1
157	16	24	-23	-13
158	18	-25	-20	-6
158	9	11	-15	0
157	75	38	15	0
157	88	89	12	5
158	-12	54	16	3
157	-65	-2	27	-1
157	-19	-33	21	-5
158	-51	-38	11	-9
158	-2	10	-8	-8
157	173	-37	25	-9
158	135	-42	34	-6
157	72	6	-17	1
158	105	15	-35	2
158	-17	41	8	-5
157	-159	79	6	-2
157	-121	82	5	-4
158	-44	44	23	0
157	-39	32	20	8
158	-25	32	22	9
158	-23	41	-3	13
158	-15	26	-4	9
158	5	-2	6	7
157	12	18	12	3
157	24	9	16	-4
158	18	3	8	1
158	31	-5	9	0
157	31	-7	10	3
157	-5	5	-4	2
158	-63	1	1	-3
158	-120	2	18	-2
158	-122	3	8	-6
157	-46	11	6	-2
157	-6	15	6	-4
157	49	41	15	2
157	148	40	41	7
157	157	5	57	11
157	168	29	48	9
158	141	30	12	6
158	45	-7	-34	-8
158	-15	25	-55	-22
157	-12	83	-23	-16
158	-81	77	-1	-10
157	-132	35	-2	-4
157	19	13	14	-4
157	107	7	17	2
157	36	1	21	6
157	34	-2	17	8
158	28	-1	10	7
157	-2	0	9	5
158	-27	2	2	14
157	-54	11	-3	9
157	-71	19	5	2
158	-61	27	15	3
157	23	32	11	-6
157	39	22	15	-2
157	58	13	34	0
157	36	13	44	5
158	-13	8	6	10
158	-40	37	-40	12
158	-84	99	-31	7
157	-133	79	2	2
157	-111	-4	16	9
157	-24	-31	52	6
157	22	-34	63	6
157	120	-14	-13	9
158	167	15	-59	6
157	172	19	12	0
158	107	39	13	-10
158	28	38	-30	-1
158	-40	68	6	-2
158	-109	75	19	-9
157	-84	32	-3	2
157	-53	-4	-19	7
157	7	-39	-5	5
158	41	-9	-9	5
157	41	-33	-4	-3
158	19	-57	9	-2
158	11	0	1	-7
157	52	15	16	-6
158	63	25	29	-1
158	14	35	52	-8
157	-41	40	43	-4
158	-28	47	-23	7
158	-4	38	-32	6
157	-12	17	17	2
157	-15	10	18	8
157	-9	28	12	1
158	-3	36	-2	0
157	18	27	-8	10
158	52	28	11	7
157	44	28	3	9
157	8	19	16	3
157	-26	5	11	2
157	-81	-10	11	-2
157	-95	-18	18	-1
158	-56	13	10	0
157	-28	51	8	-1
158	-13	36	-3	-1
158	-3	19	8	-4
157	4	19	13	-1
158	27	9	17	-2
158	65	10	30	3
158	94	26	35	9
158	108	24	18	3
158	55	8	-16	8
158	12	6	-22	3
158	-35	10	-9	-1
158	-149	24	-14	2
158	-194	33	-3	-3
158	-84	31	14	0
157	-9	24	14	1
158	-13	14	15	-2
158	53	-2	9	-4
157	148	-15	10	-4
158	206	-18	11	2
158	181	-10	8	4
158	127	38	21	2
158	61	81	29	1
157	24	47	9	-1
158	5	19	4	-2
157	8	37	8	2
157	31	51	12	3
157	10	56	-2	8
158	-27	33	-7	4
158	-56	22	9	-3
157	-72	18	-27	0
158	-45	20	-25	2
157	-39	24	6	0
158	-158	3	2	4
157	-115	-19	13	9
157	-12	-22	10	7
158	22	-16	10	0
157	74	-27	10	-3
157	34	-8	31	-8
158	34	18	68	3
158	28	72	50	9
157	-2	56	-5	7
158	-45	22	-39	-1
157	-14	33	-18	-9
157	107	7	5	-1
158	55	16	11	6
157	35	43	-17	8
157	25	37	-28	13
158	-29	38	2	3
157	-35	45	5	-6
158	-42	-13	19	-11
159	-29	-69	27	-6
157	-23	-72	21	-2
158	-8	51	27	-1
158	-45	126	14	4
157	-116	21	20	8
157	-75	18	51	7
157	5	28	44	-5
157	56	19	-35	-7
157	108	29	-62	2
158	122	17	3	3
157	132	29	6	4
157	113	25	10	3
158	42	22	42	0
158	1	6	32	-2
157	-6	2	-3	0
157	-5	11	-35	2
158	-49	13	19	-2
158	-58	11	4	2
158	-37	13	-33	7
158	-29	18	14	5
158	9	12	10	7
158	61	4	13	9
157	75	-6	13	21
158	84	-1	1	6
158	78	1	10	-10
158	-11	7	20	-4
158	-71	-8	28	-3
158	-56	-12	26	0
158	-40	17	-8	2
157	-53	45	-33	2
159	-21	67	-10	-1
158	29	45	-6	2
158	45	13	0	1
158	4	21	12	5
158	-40	19	12	8
157	-27	17	22	16
159	-104	31	15	21
157	-199	53	9	-5
157	-89	40	14	-18
158	27	31	10	-10
157	39	68	22	2
157	47	51	45	3
157	24	38	33	13
158	-9	17	-21	2
159	13	-6	-29	-13
157	67	2	-2	-12
157	65	-5	-18	-4
158	116	14	4	3
158	122	21	36	0
158	145	1	-1	4
158	179	9	-20	-2
158	99	12	-3	-8
158	4	1	22	1
158	-39	-2	21	9
158	1	13	20	6
158	-20	34	18	0
157	-27	15	10	0
158	-8	-4	10	0
157	-29	16	6	-6
157	-58	16	13	-1
157	-79	5	8	8
158	-60	2	11	3
158	-80	14	10	6
158	-66	15	4	1
157	35	7	12	-3
157	120	9	15	0
158	110	12	15	3
157	69	34	-1	5
158	11	37	1	8
157	-27	22	7	7
157	-105	21	6	7
158	-162	21	13	11
158	-82	15	26	9
158	-4	11	27	3
158	11	3	2	-4
157	14	6	-20	0
158	-35	21	-24	-1
158	-77	21	1	-3
157	-18	30	2	-7
157	-40	56	12	-6
158	-31	71	27	0
158	50	44	13	1
158	90	7	13	-2
158	102	3	32	-9
158	91	17	63	-10
158	61	-9	0	-5
157	31	-33	-75	10
158	39	-15	-15	2
158	5	-11	45	2
157	-8	2	32	13
157	-20	1	30	13
158	-53	21	-20	15
158	-88	50	-26	1
157	-92	58	-29	-1
157	-9	41	-43	-6
157	16	27	12	2
158	-18	40	1	10
157	-14	34	15	2
158	78	33	12	-8
158	129	25	4	-11
157	161	28	14	-4
157	181	23	5	-2
158	165	23	23	3
158	102	52	14	2
157	11	87	8	1
158	-35	70	4	1
158	-34	-17	4	2
158	-5	-33	14	-1
158	-46	-12	17	0
157	-56	-6	16	6
158	-92	24	22	5
157	-136	-2	30	8
157	-44	-21	28	14
158	80	-4	13	7
157	91	0	-14	-4
158	46	7	0	6
158	33	5	17	6
157	-40	13	0	0
157	-157	5	-1	-2
158	-216	-12	-1	-1
157	-110	4	4	0
158	-20	12	8	0
157	-6	-2	13	0
157	36	-10	46	3
157	61	-36	46	5
158	129	4	4	4
157	61	112	-25	0
158	0	96	-26	-11
158	-9	29	-27	-12
158	-11	49	-18	1
157	18	61	15	0
158	-60	63	10	-3
158	-183	50	11	2
157	-208	14	22	3
157	-35	3	28	9
158	96	-2	28	8
158	162	-6	-1	10
157	219	2	-18	4
157	229	27	3	-11
157	196	54	5	-13
157	106	50	-8	5
158	28	28	8	8
157	-20	40	3	-5
158	-6	40	0	-5
158	-7	24	7	-13
158	-6	9	19	-6
158	-6	9	18	3
157	-32	11	13	6
158	-24	-2	18	2
157	-9	-7	15	3
158	-11	-9	25	7
158	-21	1	42	2
158	-6	-2	72	5
157	-18	10	47	10
158	-47	42	-66	20
157	-59	44	-90	4
158	-13	26	-15	-11
158	-8	-12	-2	-7
157	-46	-29	10	-2
158	-47	9	12	-3
158	-63	35	2	-1
158	-31	6	25	4
158	-24	-14	40	-7
157	-23	0	22	-9
158	33	19	-51	5
157	85	27	-47	9
158	55	-7	-7	15
158	25	-8	-3	10
157	22	38	12	7
158	-40	17	12	8
157	-109	17	12	6
157	-97	18	10	2
158	32	29	12	-1
157	68	38	16	1
158	73	12	21	3
157	86	5	20	1
157	37	-7	13	2
158	-25	4	13	3
158	-121	42	12	-2
158	-117	83	16	-3
157	-39	70	8	0
158	19	52	8	-2
158	38	56	12	2
158	129	83	13	6
158	163	72	14	6
157	151	-36	9	2
157	90	-100	12	2
158	55	-40	12	7
158	132	5	20	7
158	100	-12	22	4
157	62	3	16	-5
158	9	-12	8	-1
158	-30	-13	23	-4
157	-90	5	42	-1
158	-123	11	20	10
157	-40	21	9	2
158	-49	19	1	-3
158	-89	42	-54	-13
157	-88	55	-59	-25
158	-11	39	-1	-10
157	83	2	8	10
158	51	14	26	9
158	4	29	35	6
158	-70	21	-16	9
158	-185	-6	-45	4
158	-212	-25	-8	-4
157	-113	82	15	-7
157	47	152	2	-7
158	128	79	16	-1
157	163	54	5	2
158	151	62	16	1
157	143	18	16	4
157	82	2	12	-1
158	-32	7	14	2
157	-9	13	11	4
158	-8	11	16	3
157	-117	4	9	2
157	-194	-1	17	6
157	-142	-8	12	8
157	-45	-8	10	11
158	-1	-2	12	15
158	68	22	19	13
158	147	51	32	11
158	178	9	32	-1
158	146	-9	17	-22
157	80	11	-9	-22
157	15	-6	-13	-8
157	-1	8	17	-5
158	-15	32	53	-2
158	-16	61	28	3
157	28	60	-58	14
158	-1	24	-30	10
157	6	-8	21	0
158	14	-37	-3	3
157	-5	-24	-6	2
158	-17	22	-61	7
158	-31	32	-13	-1
157	-19	29	22	2
157	-19	18	-7	6
158	-4	12	26	1
158	-3	21	2	4
158	-7	13	15	-2
158	-16	17	12	6
158	-3	21	16	1
157	5	17	19	1
157	-1	5	9	4
158	13	-3	11	0
157	25	8	7	-1
157	68	41	17	-2
158	66	69	20	7
157	0	70	43	12
157	-15	74	40	12
158	-39	63	29	4
158	-113	43	6	-3
158	-134	-8	-35	-12
158	-43	-85	-49	-13
157	22	-64	-29	-8
157	-16	18	8	2
158	-43	9	18	13
157	-102	3	28	2
158	-50	15	28	-3
158	18	1	-8	1
158	37	2	-17	7
157	97	2	3	0
158	101	19	4	-6
158	151	24	4	-6
157	137	32	16	4
157	65	40	6	1
158	7	45	3	-12
157	-57	39	6	-4
157	-145	10	24	1
158	-140	3	21	2
157	-9	-8	9	-2
158	16	-1	14	2
158	96	38	18	6
158	179	46	16	-1
157	171	36	3	4
158	102	36	6	8
157	-43	11	14	5
158	-96	-11	10	3
157	-57	-6	4	3
159	21	7	6	4
158	-7	-17	4	8
158	48	-8	2	-5
