File Name: not saved
Channel 3: 'EKG', 23010 values, raw ADC, no filters.
Channel 4: 'FCR_EMG', 23010 values, raw ADC, no filters.
Channel 5: 'FCU_EMG', 23010 values, raw ADC, no filters.
Channel 7: 'ECU_EMG', 23010 values, raw ADC, no filters.
Channel 8: 'ECR_EMG', 23010 values, raw ADC, no filters.

157	0	19	18	11
158	11	23	2	14
158	22	24	-3	11
157	20	24	-12	14
158	13	25	-32	17
158	8	26	-15	10
157	3	23	-9	9
158	4	20	-2	2
158	3	19	5	-14
158	1	16	-1	-17
158	3	14	2	-4
157	4	17	-7	8
158	0	17	-20	7
158	-3	17	-14	13
157	-7	15	-6	17
158	-9	8	17	10
157	-7	9	48	2
157	-1	7	45	4
158	3	5	51	10
158	8	6	60	13
157	17	13	40	4
157	22	22	35	-2
158	17	25	10	5
157	14	19	-9	11
157	14	13	1	13
157	11	19	-8	0
158	10	21	-16	-17
158	11	24	-10	-23
157	5	21	-4	-31
157	4	19	-13	-39
157	3	22	-31	-26
157	3	19	-3	-9
157	7	19	31	2
158	5	18	33	5
158	3	17	1	6
157	4	18	-18	7
157	0	18	2	7
157	-4	16	7	1
158	-1	17	3	-3
157	6	21	-6	7
157	5	19	8	15
158	1	21	53	18
157	0	19	74	13
157	0	15	59	10
158	1	17	-6	15
158	3	18	-43	14
157	3	15	6	11
158	5	18	-19	1
157	5	17	-86	-19
158	5	22	-103	3
157	4	19	-20	10
158	5	15	23	10
158	5	19	5	14
157	6	18	53	8
158	7	19	31	19
158	7	18	38	12
158	3	14	31	12
158	0	16	13	-2
158	2	22	-2	-7
158	5	23	-11	-15
158	4	20	31	-22
159	7	23	24	-18
157	8	23	18	-24
158	7	22	12	-12
158	8	20	32	-6
157	4	17	68	4
159	1	12	57	5
158	5	15	-36	9
158	8	21	-74	7
157	3	17	-4	-1
157	5	15	-6	-4
157	8	16	11	-1
158	3	13	21	5
157	7	15	0	5
158	10	19	16	5
158	8	22	10	4
157	6	19	18	6
158	4	22	5	7
157	3	17	10	9
158	2	21	21	4
158	3	18	12	4
158	0	9	-4	4
158	3	15	-46	4
157	5	19	-34	10
158	4	18	-12	7
157	6	17	-5	12
157	5	16	10	17
158	5	10	16	11
158	5	16	43	1
158	3	16	63	-9
157	2	15	35	-27
157	5	21	14	-28
157	7	21	15	-20
157	5	22	11	-20
158	5	23	19	-16
157	1	22	6	-24
158	2	20	-20	-23
157	8	18	-11	-8
158	3	17	-5	11
158	-7	15	15	19
157	-8	19	68	22
157	-3	16	88	23
158	3	19	27	18
158	10	18	6	8
157	18	18	-7	4
158	27	19	-19	-4
158	25	22	-26	-2
158	16	22	-3	6
157	7	18	47	-4
157	10	19	10	-3
157	8	19	-14	-3
158	5	23	-19	0
158	7	19	23	10
157	3	17	31	15
157	3	15	5	13
158	2	14	21	8
157	5	21	-1	4
158	5	19	-3	7
157	3	17	-34	15
158	2	19	-33	15
158	3	19	-3	7
158	5	20	-9	0
158	4	18	10	-4
157	5	13	16	-8
157	3	14	13	-12
158	1	16	15	-7
157	1	17	8	-4
158	4	19	-1	-6
158	1	21	-1	-4
158	2	20	6	-4
158	1	19	15	-1
157	-2	18	7	0
158	1	15	22	-3
157	1	17	50	5
157	3	19	99	10
157	3	17	87	16
157	9	15	-68	23
157	11	19	-137	12
157	8	22	-28	7
158	4	15	-31	18
158	5	18	-46	18
157	4	19	18	18
157	0	18	10	11
158	4	17	2	-1
158	5	22	-43	-15
158	5	21	-7	-32
157	1	15	36	-34
157	4	17	7	-40
157	5	14	37	-34
158	5	21	26	-19
158	8	22	29	5
158	5	18	66	7
158	7	21	19	2
157	7	20	-14	5
158	7	17	7	-7
157	5	17	-7	0
157	3	18	8	14
158	4	18	20	19
157	4	19	8	15
157	3	18	21	16
158	5	18	16	13
158	4	15	10	3
158	2	17	6	7
158	3	19	5	6
157	3	19	-3	0
157	4	21	-19	0
158	5	20	-22	2
158	6	17	-10	-3
157	7	17	-13	-8
158	5	22	-18	-2
157	5	17	2	10
158	7	18	42	13
158	5	17	90	9
157	2	11	56	7
157	3	17	-49	18
157	7	21	-67	13
157	7	19	12	-10
157	3	20	-5	-19
157	-1	20	-12	-26
158	-1	15	27	-17
158	0	19	28	0
157	6	17	58	6
158	4	17	35	12
158	1	19	19	7
158	7	17	8	12
157	12	19	2	17
157	16	22	28	17
158	20	27	6	10
157	18	23	-56	-3
157	9	19	-88	-10
159	-3	19	-34	-9
157	-5	19	4	-1
158	1	18	26	1
157	3	12	97	1
158	4	10	110	11
157	9	10	45	19
157	15	17	41	15
158	19	19	38	17
157	22	24	-7	4
157	12	24	18	-4
157	8	14	16	-14
159	7	18	-10	-18
157	6	20	11	-15
158	5	16	33	-3
157	4	20	34	5
157	3	19	30	7
158	3	16	42	7
157	-1	16	-35	8
157	3	18	-148	18
157	6	22	-96	17
157	1	16	6	-1
158	1	13	-7	-16
157	3	14	3	-12
158	3	17	-6	-3
157	3	14	-13	-8
158	2	15	14	-10
157	3	19	14	0
158	4	18	27	6
157	4	21	6	-2
157	3	19	12	-12
157	1	18	6	-9
157	3	21	-6	-8
158	5	17	35	-2
158	7	17	32	3
157	7	19	2	8
158	5	21	16	15
157	3	22	53	13
158	2	21	23	12
158	4	18	-23	6
157	5	18	-29	-4
158	3	19	-13	-7
158	3	15	27	1
158	1	15	39	5
158	1	16	39	13
157	7	14	33	15
158	7	15	22	7
157	4	20	-19	4
157	8	23	-28	-2
158	1	19	34	-7
158	3	22	15	-9
158	7	19	33	-14
157	7	23	53	-13
158	8	17	19	-10
158	4	13	-30	-8
158	4	17	-65	-3
158	2	16	-24	2
158	6	15	-14	7
157	6	15	-15	0
159	5	17	-24	3
158	7	21	-34	2
158	7	19	5	8
157	5	18	37	14
157	1	21	21	15
158	2	18	19	15
158	7	16	33	15
158	10	18	33	6
158	9	22	60	0
158	4	19	85	-1
157	4	15	65	-10
158	2	18	-47	-7
157	5	25	-74	-13
158	2	14	8	-9
158	-1	13	-27	-2
157	3	19	-27	-2
157	2	17	-6	2
158	5	22	-9	2
157	9	19	6	-2
158	7	19	-9	-1
158	5	20	0	12
158	9	21	-9	11
158	16	21	-7	9
158	13	21	-11	9
158	7	22	-9	16
157	9	17	27	19
157	4	17	27	17
158	7	15	36	15
157	4	21	58	0
157	5	20	39	-15
157	7	17	38	-34
158	3	18	80	-39
158	-1	14	118	-17
157	-1	10	84	-6
157	1	14	-62	-7
159	7	18	-116	2
157	9	18	-12	6
157	3	15	5	0
157	7	17	-27	2
158	11	17	3	8
157	9	20	4	8
158	4	20	23	11
157	-3	23	26	14
158	-1	18	19	9
157	2	19	14	8
157	3	23	-15	2
158	5	22	-44	3
158	3	22	-41	-1
157	3	21	-4	-11
158	1	21	-7	-4
158	1	19	2	-1
158	0	20	2	5
158	3	18	21	10
157	0	15	89	3
157	2	14	85	1
158	3	12	12	-1
158	3	17	30	-7
157	5	17	44	-12
158	5	15	-31	4
158	6	22	-48	14
157	7	21	-10	8
157	9	22	0	13
158	5	19	-13	11
158	4	17	-12	6
158	8	20	-20	0
158	8	18	-4	8
158	9	16	-13	14
157	9	17	-12	7
158	10	21	9	-5
158	9	23	10	-6
158	10	19	14	2
157	10	17	-17	3
157	5	21	-24	14
157	7	21	-11	19
158	4	17	-21	12
158	7	19	-5	14
157	7	20	45	10
157	1	19	87	3
158	0	19	81	-1
158	0	15	92	-11
157	2	5	59	-15
158	5	13	-63	-21
158	7	28	-100	-35
157	5	19	-21	-30
157	5	19	-7	-14
157	4	19	-8	-6
158	2	13	17	4
158	3	19	8	9
157	8	18	23	5
158	6	19	28	8
157	7	16	43	8
158	5	17	48	-3
158	5	20	20	-16
157	9	18	7	-12
158	10	17	-11	-3
157	13	19	-24	4
157	10	18	-4	7
158	7	19	-4	9
157	4	18	15	7
158	4	15	48	9
158	0	14	51	12
158	1	12	28	10
157	7	14	-21	12
158	4	19	-3	4
159	3	17	31	-1
157	3	19	69	8
158	3	19	91	5
157	3	16	-46	7
158	4	22	-157	14
157	3	20	-65	6
157	0	17	-2	8
158	3	22	-9	12
157	4	16	29	5
157	6	18	-3	-4
157	10	22	-22	-7
158	8	17	-8	-2
158	7	19	-9	-2
158	6	24	13	1
157	7	21	26	-6
157	7	19	42	-11
158	5	23	48	-13
158	5	19	60	-9
158	3	17	38	-1
158	1	17	21	-1
157	1	19	22	0
158	0	20	-6	1
157	2	17	1	15
157	3	17	17	14
157	0	19	0	10
158	1	19	-5	6
157	1	19	5	0
158	0	22	-4	8
157	4	16	-3	8
158	5	15	-7	9
157	8	15	-3	2
158	10	19	15	-1
158	5	19	13	2
157	4	19	12	-4
158	7	23	15	-5
157	4	22	-2	0
157	1	17	-15	-5
157	3	15	-9	-14
158	3	15	0	-1
158	4	17	8	1
157	3	17	24	3
158	10	18	37	4
158	19	17	20	4
158	15	16	24	4
158	14	19	10	0
158	10	21	-8	0
157	4	17	6	-12
157	9	21	-9	-17
158	5	17	-5	-6
157	1	14	5	-5
158	5	14	6	-4
158	3	15	7	3
158	3	15	5	9
157	1	12	12	9
158	4	18	29	10
157	4	13	56	4
157	3	14	2	3
157	5	19	-39	14
157	5	21	58	6
157	1	16	89	-6
158	8	21	-65	2
157	8	20	-112	2
158	3	18	-44	-5
158	4	23	-30	3
158	5	17	1	2
158	5	15	7	-2
158	2	13	6	1
157	3	15	29	3
158	4	21	20	9
158	3	17	18	2
157	5	22	0	-2
158	4	18	-4	-2
157	2	16	-7	2
158	3	19	-8	3
158	1	18	2	6
158	1	19	-8	9
157	2	22	33	8
158	5	23	99	4
158	4	22	91	4
158	7	24	-1	7
158	6	20	-4	3
157	3	15	48	-6
158	4	18	24	-1
158	6	19	12	-2
158	7	21	-9	1
158	7	26	-11	0
158	7	19	-9	4
158	3	15	-32	19
158	5	17	-29	9
157	4	17	-2	4
158	3	16	45	1
158	4	13	31	2
158	9	18	-12	3
157	8	23	-16	-15
157	7	19	19	-13
158	8	18	66	-10
158	5	19	55	-15
158	4	17	28	-13
158	6	16	19	-13
158	5	17	0	-8
158	5	18	-16	-1
158	4	19	-22	6
157	5	18	-27	12
158	5	17	-16	9
157	3	19	-13	6
158	3	15	6	0
158	0	12	16	-2
158	4	19	13	-2
157	8	22	20	-1
158	6	20	3	9
158	8	20	-1	10
159	8	17	-8	9
157	11	21	-11	13
158	9	20	-9	3
157	2	17	-13	-2
158	-1	14	5	2
157	3	12	23	2
157	4	14	33	3
157	6	19	28	7
157	5	18	19	11
157	3	17	-1	8
158	3	17	-7	15
158	3	15	20	14
158	6	24	15	2
157	11	24	16	0
158	11	16	17	-4
157	8	18	-16	-17
157	7	20	-20	-19
157	5	19	8	-8
157	3	17	12	-5
158	-1	17	9	-4
158	-11	15	42	-7
157	-9	10	36	2
158	-4	9	-15	5
157	1	11	-10	0
158	1	17	5	6
157	7	19	27	1
157	16	18	61	3
158	17	18	-13	9
157	14	29	-65	10
157	7	25	16	2
158	9	16	18	6
157	22	21	-23	11
158	16	22	19	-4
158	8	24	-70	3
157	2	28	-99	10
157	-4	21	23	-4
158	0	20	4	-6
157	2	22	19	-10
158	5	21	25	-8
157	4	23	8	1
158	3	20	29	4
158	7	20	8	8
157	5	18	32	-1
158	5	15	16	-5
158	7	17	17	-7
157	3	16	15	-5
157	8	17	-15	-9
157	2	14	-16	-9
157	5	17	-19	-1
158	6	14	6	3
158	4	15	30	10
157	4	16	77	15
158	0	17	95	14
158	3	17	63	18
158	5	17	32	16
158	7	19	27	11
157	5	19	30	15
158	4	19	23	10
157	5	19	29	4
157	5	21	15	1
158	5	19	-11	-6
157	4	18	-34	-14
158	5	17	-34	-14
158	5	17	-7	-7
157	7	18	-4	-12
158	5	19	-12	-10
158	3	20	-27	-1
158	5	19	-12	6
157	7	17	2	15
158	4	13	-5	17
158	-3	15	-5	6
157	-5	17	1	2
158	-4	17	15	-6
158	0	24	-7	-9
158	7	23	10	-5
158	5	21	24	-4
158	3	18	17	2
158	3	14	5	-1
158	2	14	-26	0
157	-1	14	-1	-8
158	-1	15	15	-4
159	3	17	7	4
157	9	24	-13	4
157	12	22	7	7
157	15	24	36	0
157	16	19	13	8
157	13	19	19	10
157	9	17	24	5
158	7	15	16	-6
157	7	17	-9	-9
158	8	18	-3	-1
158	5	18	24	-4
157	5	13	2	3
157	4	12	5	13
158	2	13	12	5
157	2	15	20	-3
158	6	15	20	-6
157	3	19	5	-2
158	3	22	10	7
157	4	15	8	7
158	3	15	12	4
157	1	20	-2	-3
158	4	22	-3	-5
157	12	21	11	4
158	10	22	30	7
157	7	19	62	10
157	7	19	42	9
157	5	24	-51	18
158	10	25	-75	11
158	5	15	-3	-7
158	2	11	8	-4
157	4	17	54	-8
157	3	21	94	-5
157	3	18	40	1
158	3	22	-115	14
157	7	27	-177	23
157	8	21	-10	15
157	5	19	-19	-2
158	4	20	-50	-6
157	1	14	-3	2
157	-2	14	62	-2
157	1	14	111	0
158	3	18	32	-6
158	5	19	13	-6
157	4	17	16	-13
158	3	17	48	-12
158	4	22	49	-5
158	2	15	62	-18
158	0	13	69	-14
157	0	15	28	-6
157	2	16	16	3
158	5	17	-38	8
158	5	11	-12	3
158	3	17	-1	6
158	7	24	-6	6
157	8	17	12	13
157	9	18	5	12
158	5	17	19	3
158	5	20	5	-1
157	4	23	-5	1
158	7	22	-14	4
157	9	24	-4	1
158	8	23	5	6
157	7	17	0	6
158	6	17	4	-2
158	8	21	-10	1
157	7	23	-23	11
158	6	19	-12	13
158	5	17	0	16
157	8	21	-20	18
158	6	19	-18	8
158	4	15	12	3
157	5	15	45	-6
157	7	18	50	-21
158	4	14	20	-22
158	3	11	8	-23
158	1	15	-12	-21
158	0	14	15	-6
158	0	18	32	6
158	3	24	-27	11
158	7	18	-22	10
158	7	15	-12	4
158	6	13	-16	-9
158	3	18	36	-5
157	10	20	42	2
157	16	19	9	3
157	12	20	14	8
158	4	21	9	2
157	5	18	10	-4
158	5	18	-19	3
158	7	23	-29	4
158	10	22	38	6
157	8	24	90	13
158	3	17	102	13
158	7	18	29	7
157	11	22	-67	10
158	10	18	-108	11
157	8	17	-56	8
157	-1	13	29	0
157	-4	14	-7	-1
157	0	17	-28	-1
158	-2	17	-21	1
157	0	18	-1	0
158	1	19	40	-2
157	3	19	36	6
157	1	17	33	6
157	3	18	26	2
158	11	20	55	7
157	13	19	41	11
157	5	17	16	7
158	10	16	9	7
158	6	19	-4	5
158	5	23	9	9
157	8	22	-1	-6
158	6	21	2	-15
157	4	19	9	-16
157	3	14	22	-31
157	5	18	30	-27
158	7	15	36	-9
157	1	14	33	-3
158	2	16	-4	-7
157	1	11	-28	-6
158	2	10	-41	10
157	5	19	-17	11
157	4	14	12	12
157	4	10	-5	16
158	5	12	3	4
157	3	13	-4	-3
158	5	22	-8	-2
158	5	19	4	1
157	5	21	20	7
158	5	19	50	6
157	-3	19	57	6
158	-8	18	36	13
157	-1	22	-31	10
157	4	20	-36	4
158	5	19	-32	4
158	12	20	-41	4
158	16	17	12	-2
158	24	21	9	-5
158	24	23	26	-2
158	16	24	19	2
158	10	25	-9	4
159	10	22	22	-4
157	8	22	33	-4
158	9	22	17	1
157	5	19	6	11
157	1	22	24	11
157	5	21	36	-2
158	1	21	12	1
158	3	23	-17	1
158	3	21	-14	4
157	4	18	-34	8
157	5	15	-53	1
158	4	17	-23	-7
158	5	20	29	-8
158	6	19	37	-8
158	5	13	45	-6
157	1	15	64	1
157	-1	13	19	4
158	-4	11	-15	6
158	-6	15	-27	13
157	-4	14	9	13
157	-1	11	72	11
158	3	16	72	10
158	5	22	25	2
157	5	22	13	2
157	6	25	9	10
159	6	19	-29	9
158	7	17	-11	2
158	4	18	7	-7
157	7	17	8	-11
158	7	17	9	-9
157	3	18	8	-5
157	4	16	2	-6
157	4	18	-3	-3
158	5	18	-11	1
158	4	18	-15	6
158	6	25	-18	10
158	8	24	-35	0
158	4	23	13	-6
158	5	18	68	-15
158	3	14	89	-30
158	-1	13	46	-34
158	3	14	-49	-14
158	5	19	-55	-9
157	5	20	-67	6
157	6	17	2	9
157	5	15	38	-2
158	7	20	-29	7
158	7	16	-4	13
158	5	12	-2	21
158	7	15	24	15
157	5	14	29	17
158	2	14	27	20
158	3	15	13	20
158	1	19	6	13
157	0	19	41	5
157	4	20	4	-8
158	10	24	-57	-17
158	13	26	-77	-13
157	4	19	-29	-9
158	4	18	-11	11
157	6	22	-6	2
157	4	18	9	-4
158	8	17	22	-7
158	8	18	39	1
157	7	14	40	13
157	7	14	74	6
157	2	14	65	7
158	5	18	6	8
158	7	22	3	15
157	6	19	15	16
158	3	17	-14	17
157	4	19	15	17
158	3	19	45	9
157	4	18	13	3
157	7	22	10	3
157	5	19	40	2
158	3	17	37	-6
157	-3	16	-5	-1
157	1	16	-26	-5
157	4	17	1	-10
158	3	17	-3	-10
158	5	18	-1	-15
158	4	15	9	-8
157	10	17	-12	-3
158	16	15	1	-4
158	13	21	-3	-1
158	6	21	10	2
158	-3	18	17	8
158	-2	22	21	6
157	4	18	24	2
157	3	19	-22	4
157	5	26	-60	9
157	6	24	-26	-2
158	3	21	27	-1
158	3	18	-15	11
158	4	15	-1	-1
157	2	19	49	-6
158	1	19	56	-3
158	1	18	54	-6
158	5	21	26	-11
158	9	19	13	-12
158	8	17	8	-16
158	8	18	-6	-10
158	8	19	-25	-4
157	8	18	-38	-1
158	8	18	-31	14
157	5	17	-29	9
157	5	16	-46	1
157	5	19	-42	7
158	3	19	17	11
157	1	19	108	8
157	0	17	105	-2
157	3	15	-19	-6
158	6	20	-27	-14
158	9	21	58	-24
158	7	23	29	0
158	5	18	40	12
158	3	15	33	9
157	8	19	-1	4
157	6	15	13	-2
158	8	15	-5	6
157	8	17	6	15
158	3	16	-7	22
158	4	14	4	19
157	1	10	43	13
158	3	12	33	10
157	4	17	-65	9
157	6	22	-105	7
158	5	16	-8	0
158	3	17	10	-2
158	7	23	7	-3
157	12	25	17	3
157	10	22	10	16
157	8	18	28	14
157	5	19	40	6
157	5	20	59	6
158	4	19	43	4
158	5	22	9	-5
159	4	22	0	-2
157	5	16	13	-4
158	4	18	-15	-14
157	4	22	-62	-18
157	6	19	-35	-13
158	7	21	19	-11
157	9	22	29	-14
158	4	18	30	-2
157	5	21	11	10
158	4	17	-13	13
157	5	15	20	12
157	10	15	4	7
157	7	15	-20	3
157	7	17	-40	9
157	5	16	-41	15
158	1	18	23	7
157	1	15	10	-4
158	1	20	-14	-5
158	4	20	24	-7
158	5	14	53	-6
157	9	17	77	-13
158	4	18	69	-18
157	5	19	26	-10
157	5	19	11	-1
158	5	19	1	7
158	5	17	6	15
159	6	18	9	9
158	4	22	0	3
158	5	16	-12	7
158	7	17	-30	7
157	4	15	-2	7
158	4	14	18	4
158	-2	15	4	-2
158	-9	14	2	9
157	-9	13	5	4
158	-5	17	20	-6
157	-3	21	33	-10
157	0	17	30	-17
158	12	18	0	-7
157	26	25	-33	2
158	28	29	4	0
158	27	33	7	4
157	13	26	-33	8
158	10	22	-21	6
157	10	18	-10	8
157	5	15	-1	4
158	3	20	2	2
158	3	18	20	4
158	3	15	41	-2
158	-1	13	56	-6
158	0	12	60	-1
158	2	12	-32	6
158	3	17	-98	14
158	3	15	2	8
158	1	11	42	0
158	1	16	13	0
157	4	13	19	-7
158	3	15	-23	-5
157	3	15	-18	-8
158	8	15	-16	-5
157	12	17	-12	4
158	6	21	1	6
158	2	21	-4	2
158	-1	19	16	-6
158	-1	24	0	-13
157	1	19	20	-3
157	5	18	35	8
157	7	19	42	8
157	8	19	42	6
157	6	19	40	-2
158	5	17	47	5
157	5	18	32	8
157	3	17	30	4
157	1	16	53	11
158	2	15	82	7
157	1	15	4	5
157	4	23	-96	12
157	4	24	-9	2
158	3	14	50	0
158	5	18	-19	0
158	8	21	13	-6
157	7	17	-18	10
158	8	15	-52	11
158	6	13	-24	-11
158	3	18	-55	-4
158	5	21	-41	2
158	3	18	-15	-2
157	5	15	-25	0
157	3	19	-41	-6
157	6	18	-1	0
158	5	19	43	4
158	5	17	29	-1
157	4	18	-5	-2
157	8	20	27	-5
157	5	15	93	-1
158	7	20	82	-2
158	6	24	32	2
157	7	18	39	8
157	5	15	28	19
158	8	15	19	11
158	5	17	39	2
158	5	19	9	6
157	9	19	6	11
158	8	20	10	6
157	7	21	-2	-5
158	4	22	-2	-9
157	3	18	5	-9
157	3	17	12	-4
158	2	17	-3	-9
158	3	17	-10	-13
158	7	22	-18	-9
157	7	19	-14	-1
158	7	18	13	4
157	5	18	5	5
157	7	15	-12	-1
158	5	14	-8	-7
157	3	16	-24	-3
157	3	17	-24	3
157	3	21	-11	3
157	5	19	-8	2
158	5	17	4	-1
158	6	21	25	2
158	5	17	54	2
158	2	18	85	2
157	5	16	74	8
157	6	14	-5	16
158	5	17	-69	13
158	2	14	-31	-2
158	3	17	-37	7
157	10	20	-48	1
157	9	19	16	0
157	10	19	1	10
157	5	17	34	9
158	5	17	52	20
157	8	17	29	22
158	0	14	28	25
157	-19	13	-9	22
157	-30	14	-10	4
157	-18	11	9	-2
157	-7	11	9	-21
157	0	18	19	-31
157	7	14	40	-14
158	14	14	26	-13
157	35	20	1	-22
158	44	19	-28	-22
158	38	25	-63	-11
157	21	26	-35	-11
157	17	21	-6	-16
158	13	24	-4	-7
158	4	18	25	6
158	8	19	21	13
157	9	18	15	9
158	9	22	16	11
158	5	26	14	8
158	-2	24	21	6
158	-4	22	20	4
157	-2	19	15	4
158	-3	22	2	10
158	-2	21	15	13
158	-2	20	38	14
158	-1	17	35	11
157	0	16	17	10
158	5	15	-16	10
158	8	17	-26	4
157	4	25	-9	-3
158	2	25	-2	-2
157	-1	17	6	0
158	4	14	6	1
157	4	18	-2	-2
158	1	19	24	-7
157	4	18	45	-8
157	1	19	42	-10
158	1	17	25	-7
158	1	18	1	-6
158	4	21	-7	-1
157	4	19	-21	4
158	7	17	-6	-1
158	6	16	10	-2
158	5	18	14	-4
157	5	15	26	2
158	4	11	35	11
158	5	15	32	9
157	5	13	0	6
158	7	18	-30	7
158	7	20	-30	7
157	5	18	-22	6
158	2	21	-5	9
157	4	18	41	6
157	7	16	70	4
158	6	17	78	-1
158	4	15	51	0
157	4	16	-51	4
158	7	21	-96	7
158	8	23	0	0
157	7	16	32	3
158	8	14	6	2
158	6	18	12	-4
158	5	15	-3	-1
157	5	13	32	3
157	3	16	13	11
157	7	18	-6	10
158	7	17	-2	10
157	8	11	-3	2
157	10	17	17	-9
158	7	22	-5	-15
158	7	18	-16	-6
158	9	19	-19	-7
157	7	15	4	-17
157	3	15	-3	-9
157	2	21	17	-4
157	1	21	50	4
158	4	17	60	10
157	3	14	39	10
157	3	13	-8	7
157	7	19	5	-7
158	0	18	-12	-10
158	3	18	-24	-8
158	9	22	-4	-7
158	11	25	1	2
157	5	18	26	3
158	5	16	32	11
157	5	17	-12	15
158	0	15	-44	9
157	4	23	-15	-5
158	2	24	-4	-4
157	9	19	-19	-4
158	9	21	-6	-2
157	11	17	7	6
158	8	16	46	7
158	3	14	118	6
157	1	15	115	4
158	0	18	5	11
158	5	19	-32	16
158	8	15	41	17
157	4	15	1	19
157	4	19	-48	6
158	1	14	-48	0
158	6	21	-64	2
157	10	24	-42	2
158	8	22	-31	-1
158	3	25	-34	-7
158	5	24	-39	-8
158	4	20	5	-14
157	3	19	27	-18
157	7	17	32	-16
158	5	17	56	-15
157	0	14	99	-25
158	1	19	57	-15
158	5	22	-8	-1
157	2	17	18	2
157	3	21	14	7
158	7	19	16	6
157	3	19	32	11
158	-1	17	99	15
157	1	14	111	18
157	0	16	-29	17
158	2	21	-98	13
157	2	17	-11	-1
158	7	15	19	-1
157	9	17	-48	9
157	5	10	-18	9
158	3	12	4	6
158	8	14	-7	10
157	15	17	-27	8
158	14	22	-25	6
157	7	25	-3	7
157	4	21	4	6
158	3	23	12	11
157	6	24	3	13
158	7	21	2	7
157	4	20	2	4
158	5	21	7	2
157	3	21	-4	-2
157	3	22	-9	-1
157	2	20	18	-5
158	3	17	31	1
158	3	15	18	-1
157	4	13	8	-20
158	2	16	35	-25
157	4	18	50	-20
157	4	16	40	-13
157	5	20	29	-10
157	5	17	-1	-12
158	5	16	-10	-3
158	3	15	6	1
158	5	13	26	-4
158	5	12	31	4
157	3	16	35	8
158	7	15	58	11
157	5	16	39	16
157	6	14	-3	23
158	8	14	-37	28
157	8	20	-27	15
158	10	17	5	4
157	10	17	-25	-3
158	8	18	12	-3
157	5	17	73	-3
157	3	19	-19	-8
158	3	21	-112	0
157	7	18	-45	-12
157	3	18	-6	-20
157	4	25	-23	-3
158	5	18	10	4
157	5	21	0	2
157	5	23	3	-2
157	2	19	12	4
158	8	23	38	4
157	12	20	46	1
157	5	23	9	0
158	-1	21	6	0
158	3	19	8	-3
158	3	19	12	0
158	1	18	21	4
157	3	15	32	-1
158	3	20	20	0
157	1	17	6	4
158	0	14	33	2
158	5	19	51	-9
157	3	21	2	-5
157	7	16	-43	10
158	5	12	-51	14
157	2	17	-35	8
158	6	22	18	6
159	7	19	115	2
158	7	17	109	0
157	7	18	-52	14
158	6	21	-62	15
158	5	19	0	9
158	3	21	-24	3
157	7	21	-12	5
157	3	17	-1	-4
157	2	17	-11	-5
158	5	17	-50	-7
158	4	24	-33	-9
157	3	21	0	1
157	2	19	-6	0
158	6	21	19	0
158	10	16	25	0
157	7	14	36	-4
158	4	14	35	2
158	7	15	36	8
158	7	19	40	6
158	7	19	17	1
158	8	16	1	7
158	11	17	-9	15
157	8	17	13	12
158	1	19	20	9
157	2	19	16	4
158	0	15	26	0
157	1	12	33	-11
157	5	11	45	-11
157	8	14	25	-9
157	5	18	-6	-12
158	5	22	-26	-10
158	5	19	-2	-10
157	3	17	16	-5
157	5	17	15	0
158	8	19	12	2
157	8	18	-6	2
157	5	16	7	7
157	7	20	1	13
158	7	21	-16	11
158	8	21	-24	7
158	5	21	-4	9
157	5	19	14	9
157	3	19	8	9
157	1	16	25	14
157	3	18	35	14
157	7	19	29	14
158	8	22	12	14
157	5	21	6	10
158	1	20	-2	1
158	2	23	-35	0
158	4	21	-24	-4
157	5	19	7	-8
158	6	16	-1	-11
157	5	16	-9	-20
158	6	16	-14	-23
158	6	21	-4	-30
158	6	20	58	-18
157	5	18	95	4
157	8	22	54	5
157	7	18	38	8
157	4	15	32	10
158	4	12	5	6
158	3	12	21	-12
157	3	17	-14	-10
157	5	15	-23	0
157	2	14	10	-12
158	4	20	-18	-8
157	3	16	-8	4
157	5	22	-14	5
157	8	26	-8	5
158	15	25	5	10
157	16	19	39	8
157	6	14	32	3
157	11	18	-65	15
158	15	23	-52	14
158	9	22	15	3
158	1	21	12	2
158	0	18	32	3
157	2	19	29	0
157	2	21	-30	-3
157	4	16	-53	15
158	0	18	16	14
158	-1	11	80	10
157	-2	13	-30	8
157	4	19	-70	-3
158	5	17	9	0
157	5	17	-13	2
157	2	19	-31	4
157	2	18	-2	2
157	2	18	24	1
158	3	18	28	3
157	5	16	21	4
157	0	16	36	2
158	3	18	36	0
158	4	24	10	-6
158	6	24	-17	-6
158	5	21	-16	-2
157	5	19	1	-6
157	5	15	25	-5
158	7	15	41	0
158	5	17	47	8
157	4	15	38	11
157	6	17	27	4
158	7	18	19	2
157	4	17	7	7
158	8	15	6	7
158	10	14	12	1
158	8	18	12	-4
157	9	17	12	-8
158	9	15	4	-5
157	3	19	16	0
158	-2	18	29	7
157	0	19	1	6
158	3	20	-33	4
157	4	17	-8	4
158	5	21	7	-8
158	1	22	17	-1
158	0	19	42	5
157	7	22	25	2
158	7	18	-12	6
159	5	14	-31	2
158	8	18	6	-9
159	3	18	14	-12
158	5	18	-2	-12
158	8	18	13	-16
158	5	19	-5	-16
158	7	21	-27	-8
157	6	17	-51	7
158	4	9	-22	13
158	1	10	12	16
157	3	18	9	16
158	5	17	29	3
157	9	19	-4	6
158	5	15	-14	7
157	5	17	-8	-8
158	10	24	-4	-2
157	5	15	58	9
158	5	16	78	-6
157	4	19	56	-7
158	6	17	35	0
158	8	18	19	1
158	8	19	23	8
157	9	20	5	9
157	9	24	-7	11
158	7	18	8	13
158	5	17	-12	20
157	6	18	-20	20
157	5	19	-3	4
157	3	17	30	-4
158	1	15	42	-3
158	0	16	9	-1
158	1	17	-8	-3
158	3	22	-18	2
157	3	19	-16	2
158	3	17	-5	3
158	4	17	-3	11
158	2	16	-4	9
158	7	19	-1	-5
158	15	18	-2	-16
157	9	15	13	-20
157	5	17	29	-12
158	3	19	30	-8
158	3	23	29	-6
158	4	20	25	6
158	3	15	22	11
157	5	17	11	15
158	7	17	2	13
158	3	19	14	11
157	3	20	21	16
158	3	18	30	15
158	2	15	-4	7
157	5	18	-71	-1
157	8	21	-42	-2
158	8	19	0	-6
158	5	17	40	-20
158	4	16	1	-10
158	5	22	-35	-13
158	3	15	31	-15
158	1	14	8	-11
158	2	15	13	-5
158	3	16	2	9
158	3	19	-49	3
159	4	23	-44	11
157	7	18	-11	15
158	6	17	-5	10
158	6	17	-10	3
158	3	15	21	-5
158	3	20	18	-8
158	5	17	35	-6
158	7	18	19	-9
158	7	21	-2	-9
157	4	18	-23	-5
157	3	16	-24	-2
158	7	20	6	0
158	15	25	-6	6
157	13	27	-20	7
158	5	26	9	6
158	5	22	41	4
158	3	21	40	6
158	4	18	47	9
158	3	14	68	11
158	2	16	104	12
158	8	15	69	14
158	8	15	22	10
157	7	16	36	3
158	5	17	39	-1
158	3	12	43	1
157	3	11	42	4
158	7	13	41	2
157	6	19	10	3
157	5	24	-17	-2
158	1	22	-23	-5
158	0	23	-35	9
158	5	21	-22	6
157	7	17	-18	4
158	7	12	-14	-5
158	3	18	-6	-8
157	3	20	-6	2
157	3	17	-6	2
158	0	14	-18	-1
157	2	14	-40	-1
158	5	17	-24	0
157	6	17	2	6
158	1	21	6	11
157	2	21	0	11
157	5	22	15	12
157	5	23	54	3
158	4	19	46	-9
159	10	24	-8	-9
157	8	21	-34	-10
158	3	16	-30	-13
157	4	21	-25	-8
158	6	19	-9	-7
157	10	22	4	-9
157	9	24	-18	-5
158	8	22	-11	1
158	5	17	30	1
158	7	18	24	-3
157	9	18	15	0
158	7	14	27	2
158	7	18	29	4
158	5	15	42	0
158	1	17	47	0
158	1	14	78	10
158	1	9	64	17
157	7	17	-59	23
158	9	19	-110	11
157	5	18	-63	9
158	2	15	6	6
157	5	15	5	-5
158	9	18	-8	-6
158	10	21	13	-9
157	9	21	0	-9
158	3	19	10	-7
157	5	21	3	-2
158	5	19	19	0
158	8	21	19	4
158	7	19	14	11
157	4	15	15	10
157	7	19	0	15
157	5	19	19	13
158	4	19	16	7
158	2	23	15	3
158	5	19	23	-3
158	7	21	15	-13
159	4	21	6	-9
157	5	17	12	-4
158	3	17	16	-6
158	0	17	20	-8
158	2	15	34	-8
158	5	15	13	-2
157	4	16	5	3
158	7	24	20	1
158	4	21	-1	2
158	3	15	24	-2
157	2	19	38	-12
158	1	21	16	-18
157	3	18	11	-18
157	1	22	16	-18
158	0	17	25	-4
157	1	13	-19	11
157	5	17	-65	16
157	3	14	-30	13
158	3	16	-6	6
157	6	20	-13	10
158	5	17	-13	11
157	7	17	-11	11
157	6	19	21	13
158	4	16	9	16
157	6	15	-1	5
158	3	12	15	-2
157	3	10	21	4
158	1	13	12	3
157	3	17	-7	2
158	1	15	17	0
158	0	16	18	7
157	6	15	25	8
157	8	15	33	4
158	5	17	22	3
158	4	20	12	9
158	12	17	20	4
157	15	19	-8	-6
158	16	24	-44	3
158	13	24	-3	4
158	3	27	3	0
157	11	24	8	-4
158	8	23	20	-2
158	3	19	22	-1
158	5	18	29	-1
158	3	19	8	-1
157	6	17	15	-3
157	9	21	23	4
158	7	17	23	-2
157	3	13	13	-8
158	5	15	-4	-10
157	4	18	-15	-15
157	4	18	-13	-12
157	2	16	-9	-6
157	0	16	-28	-3
157	1	14	-1	3
157	2	19	24	13
158	7	18	45	6
158	5	16	69	8
157	6	17	-9	8
158	3	20	-87	4
157	3	21	-34	6
158	5	14	10	1
157	3	15	3	4
157	4	18	30	0
157	0	15	27	9
157	5	14	38	9
158	5	18	27	7
157	9	19	0	7
158	4	19	-2	4
158	10	21	-9	2
158	10	15	-1	-3
158	3	19	17	-1
157	7	21	73	2
157	9	22	107	-4
158	3	19	19	-9
158	4	23	-109	-8
157	8	24	-38	-6
158	3	21	21	3
157	4	22	-1	10
157	4	18	52	7
158	6	16	23	-5
158	5	19	28	-12
157	5	18	43	-3
158	6	20	9	-4
157	3	19	-15	2
158	5	20	2	0
157	4	18	28	3
158	6	18	-29	13
157	7	20	-44	14
158	8	18	-45	15
158	5	16	-21	9
157	5	15	-13	10
158	4	13	-1	-5
158	1	14	41	-13
158	3	16	38	-6
157	3	10	34	2
158	5	14	-6	2
158	5	22	2	-4
157	2	19	21	-2
158	6	21	-17	1
157	5	19	-10	12
157	5	18	-3	14
158	5	20	-15	10
157	7	17	-31	7
157	7	18	-12	-4
158	7	17	52	-3
157	5	15	91	-7
158	8	19	99	-9
157	4	18	40	-1
159	3	18	2	-1
157	5	18	-3	1
158	5	16	-12	4
157	3	12	11	2
157	3	17	-7	-2
157	3	18	-21	0
158	2	17	-31	6
159	0	17	-27	6
158	2	19	-9	14
159	8	21	-5	13
157	7	14	-7	15
157	5	17	-9	7
157	4	22	20	3
157	4	19	43	7
157	3	18	13	-6
157	9	23	-24	3
158	6	15	47	-7
157	4	14	77	-23
158	6	22	14	-29
158	5	18	-3	-26
158	7	22	-33	-14
157	5	19	4	-4
158	6	16	13	11
158	7	19	-30	2
157	3	18	-17	4
157	5	16	2	10
158	4	17	17	4
158	0	19	5	-5
158	4	22	30	-3
158	8	22	13	8
158	3	19	17	13
159	5	19	18	11
158	11	24	-19	6
158	14	24	5	3
158	16	25	-3	3
157	10	23	6	7
158	8	19	13	7
157	6	19	5	5
157	5	17	9	6
158	3	17	21	0
157	3	16	48	-4
158	0	11	39	0
157	0	15	-30	3
157	1	19	-17	9
158	-2	16	88	8
157	0	13	-3	9
158	4	21	-70	3
158	5	15	6	0
157	4	14	-6	9
157	4	15	15	-4
158	3	21	18	-4
157	8	25	-27	-4
158	8	21	-4	8
157	8	19	19	10
157	5	12	5	4
158	4	17	-27	-2
158	8	19	-18	-5
157	8	20	-3	-3
158	5	21	17	-10
157	7	22	26	-1
157	3	19	29	-2
158	-2	19	24	7
158	2	22	14	13
157	5	17	21	0
158	6	18	14	1
157	7	18	10	-6
158	7	17	18	-10
158	3	18	18	-1
157	7	14	28	2
157	14	16	42	1
157	12	21	20	2
157	9	22	-3	1
157	5	21	13	0
157	0	17	33	6
157	-1	18	29	7
158	3	21	7	4
157	3	21	-12	-6
157	3	17	-14	-12
157	3	14	19	-16
158	3	13	27	-14
158	4	11	0	-9
158	4	14	-4	-6
157	5	14	-15	0
158	6	15	-23	6
158	5	15	-16	11
157	5	15	-10	5
158	1	15	-11	4
158	1	18	-9	14
157	7	17	-5	5
158	4	16	12	0
157	7	19	21	5
158	10	24	24	2
158	8	22	36	4
158	10	21	46	2
157	8	20	54	2
158	6	20	48	2
158	6	19	10	6
158	7	23	-10	4
158	4	22	-18	-2
157	3	15	-46	3
159	3	13	-65	4
157	1	11	-43	-1
158	3	14	8	0
158	4	16	10	-1
158	3	24	-3	-3
158	3	19	6	2
157	3	15	-1	-6
157	4	19	-31	0
158	5	22	-8	7
158	7	22	30	1
158	16	21	1	6
158	12	18	12	-5
158	4	15	9	1
158	10	17	6	4
158	9	15	17	5
157	7	17	16	-1
158	7	12	39	3
157	2	15	68	4
157	-1	10	67	-2
158	1	13	-32	9
158	5	20	-55	10
157	4	12	9	7
157	5	21	21	-1
158	7	19	46	1
157	7	15	58	3
157	3	17	62	4
158	3	17	79	0
157	4	18	-8	-4
158	4	21	-157	1
158	8	27	-84	4
157	6	18	33	23
157	5	16	-10	26
158	5	22	30	20
158	7	21	19	28
157	7	19	5	20
157	3	19	34	9
158	3	21	33	2
157	4	24	32	-8
159	8	24	-8	-12
159	7	19	-19	-28
158	6	23	-37	-38
157	5	18	0	-46
158	1	17	31	-49
158	2	18	42	-30
158	1	18	34	-26
158	3	18	13	-20
158	7	15	30	-15
157	7	17	6	-4
157	6	16	-4	10
157	8	16	-4	9
157	7	15	-1	11
157	1	16	2	8
157	5	16	2	10
157	7	21	-2	15
158	4	19	0	13
157	6	17	12	16
158	8	21	6	15
157	5	18	13	17
158	9	20	0	19
158	3	21	-9	12
158	-4	22	-16	14
158	1	24	-2	22
157	5	22	39	23
158	6	15	42	14
157	5	10	-12	-4
158	0	14	-89	-1
158	3	15	-51	4
157	1	20	3	-8
158	3	18	8	2
158	6	17	37	3
157	5	17	45	6
157	5	15	60	-1
158	3	13	69	-5
157	6	18	58	-2
157	12	16	42	-12
158	13	17	23	-8
158	10	23	12	-9
157	3	23	-2	-5
158	1	23	7	0
158	4	17	8	-2
157	3	18	-10	0
158	3	17	-35	11
158	7	17	-42	15
157	7	22	-8	6
158	5	22	5	2
157	5	17	0	0
158	3	14	17	-1
158	3	13	17	0
157	1	14	2	-1
158	3	15	-1	-4
157	5	18	48	4
158	4	21	138	7
157	4	13	107	-1
157	4	17	-116	7
158	8	24	-207	20
157	10	18	-32	12
158	15	14	9	-2
157	12	16	-33	-6
158	4	13	-24	-5
158	5	18	-2	-1
158	5	17	44	-1
157	5	20	37	-4
157	3	19	39	-6
158	5	21	49	-5
158	2	23	43	-6
157	1	18	14	2
158	3	22	2	2
157	1	18	4	0
157	1	19	6	1
157	0	23	8	2
158	1	18	0	2
157	-1	18	9	4
157	1	17	17	2
157	3	17	8	2
158	4	18	-13	9
158	9	17	0	7
158	5	18	32	3
158	4	17	46	2
157	4	13	33	7
158	7	17	-14	0
158	10	18	-31	-6
158	8	17	-23	-9
157	7	20	-39	3
158	8	19	-14	-2
157	4	18	19	-8
158	5	24	-8	-4
158	9	23	-8	-8
158	10	22	4	-3
157	10	21	4	-4
158	10	21	-4	0
157	8	23	39	0
157	4	20	87	3
157	7	20	49	5
158	5	18	16	5
158	3	15	19	4
157	4	15	10	-1
157	4	17	22	2
158	3	15	32	7
158	4	17	22	8
157	6	16	24	8
158	3	11	17	9
157	2	11	13	4
158	3	15	15	3
157	7	17	7	2
158	5	19	-2	4
157	5	19	-4	3
158	10	19	-6	2
157	10	19	-7	3
158	7	15	-29	13
157	7	15	-33	14
157	5	19	-2	7
157	5	17	-15	5
158	4	22	4	-1
157	5	15	38	-1
157	1	15	38	-7
158	5	15	7	-8
157	7	21	-44	-14
157	7	22	-43	-12
158	6	22	-30	-10
158	3	17	10	-15
159	5	16	25	-4
157	5	23	4	-1
158	7	17	9	-6
159	7	16	19	-4
157	7	22	20	3
157	11	19	-2	6
158	8	19	7	5
158	8	19	14	10
158	9	18	41	10
158	-1	19	104	9
157	-2	15	111	7
158	0	16	-1	4
157	2	24	-122	8
157	1	25	-96	4
158	-2	21	-16	1
158	-1	18	20	11
157	3	17	13	11
157	4	17	24	7
158	1	19	25	10
157	8	20	-3	1
158	16	19	-16	-1
157	12	19	-35	1
158	9	19	-15	0
158	11	16	28	9
158	7	17	22	13
158	1	13	2	7
158	3	15	7	-1
157	2	15	-8	-4
158	2	14	-10	-6
158	2	17	8	-9
158	7	18	15	-9
158	7	21	27	-5
158	5	21	32	3
158	8	20	42	0
157	3	21	43	-8
158	4	19	27	-4
157	4	19	9	2
157	3	15	3	2
157	3	14	5	-18
158	3	21	3	-19
157	4	19	13	-7
158	5	17	4	-9
157	5	18	-1	1
158	5	15	9	10
157	3	14	15	10
158	2	13	34	6
158	3	15	9	4
158	8	18	-23	6
157	8	22	-2	0
157	6	19	8	1
157	4	19	5	1
157	3	19	0	9
158	0	17	1	8
157	-1	18	7	11
158	1	18	6	14
158	6	17	-1	12
157	7	20	-16	11
157	4	22	-8	11
157	5	19	-11	6
158	12	21	-1	3
157	18	21	27	1
157	14	22	29	3
157	4	25	17	7
157	2	19	25	-2
157	2	19	25	-2
157	-2	17	11	-4
158	2	15	24	-4
157	4	17	29	0
159	5	14	31	-1
158	3	14	27	-11
158	6	15	11	-12
157	6	18	12	1
157	6	21	38	4
157	3	15	74	6
157	2	12	5	5
157	3	19	-90	4
158	6	19	-42	0
158	8	17	-14	-1
157	7	21	-16	2
158	4	18	29	2
158	4	16	10	5
158	3	15	-9	-6
158	0	14	-23	-7
157	5	14	12	-8
158	3	19	2	-1
157	8	22	-87	3
158	8	25	-69	10
158	5	18	-9	7
158	7	20	0	1
158	8	24	21	6
157	7	15	53	-6
158	8	22	39	-10
157	8	22	21	-11
158	6	19	-5	-9
158	4	19	-16	-9
157	1	19	-21	0
157	2	18	0	3
157	4	19	33	3
157	2	23	31	10
158	3	22	59	10
157	9	21	67	16
159	9	14	37	13
157	6	18	22	6
157	5	21	31	-2
158	5	20	52	-7
157	10	19	50	-2
158	8	18	29	6
157	4	13	16	4
157	2	16	9	-5
158	4	19	-23	-3
158	11	17	-38	-5
158	8	15	-34	-5
157	3	15	-43	3
157	3	17	-33	7
157	2	15	-6	4
158	0	17	14	6
157	4	17	7	6
158	4	19	-3	7
157	6	21	-15	10
157	4	18	-16	8
157	3	19	-3	8
157	3	15	2	8
157	3	19	8	6
158	3	18	22	12
158	3	17	13	10
157	3	20	8	7
158	3	21	36	5
158	4	18	35	9
157	4	15	16	-4
158	4	15	3	-10
158	9	19	2	-3
157	9	21	34	-6
158	8	21	61	-5
158	4	15	67	-16
157	6	15	-16	-9
158	11	21	-98	-4
158	8	22	-15	-6
157	4	15	43	2
158	3	14	-25	5
157	3	17	-54	9
157	5	17	-35	4
157	6	18	-13	6
158	5	15	10	-1
158	4	16	41	-13
157	-1	19	45	-10
158	-3	17	29	-2
157	1	14	32	-1
158	4	14	43	-1
157	7	16	35	3
157	9	18	19	0
158	10	19	7	-2
158	10	21	-3	1
157	15	19	17	2
158	14	22	22	4
158	11	25	11	10
158	3	24	11	4
157	0	18	11	1
158	3	16	5	5
158	5	17	-21	5
157	5	17	-40	7
157	4	15	-32	9
157	6	16	-17	7
157	3	21	-2	6
158	6	17	38	-9
157	5	11	98	-12
158	4	12	74	3
158	3	14	-35	7
158	5	19	-128	1
158	5	17	-52	-3
158	0	10	-2	-1
157	4	17	-43	-2
157	6	16	30	2
158	6	17	61	8
157	6	17	59	9
157	7	17	63	15
157	5	19	63	4
158	3	18	-1	2
158	11	26	-78	13
158	14	28	-11	2
158	3	19	13	-2
158	4	23	0	6
157	7	22	7	4
157	3	18	8	0
158	8	20	24	-7
157	4	17	17	-14
158	4	18	33	-10
158	5	23	35	-6
157	4	22	2	-3
158	5	21	-12	4
157	3	19	-2	9
158	3	15	2	8
157	6	19	1	6
158	8	24	10	2
157	7	18	7	2
157	5	19	25	4
157	4	21	26	-2
157	3	19	10	-8
157	2	18	3	-2
158	2	16	-1	0
157	-1	16	-31	4
158	0	18	-11	6
157	-1	13	19	4
157	3	19	-9	2
157	4	18	-12	-2
158	-1	18	-36	-4
157	1	20	-17	-1
158	1	21	21	1
158	7	24	24	9
157	8	21	27	20
157	5	12	0	16
158	7	14	-23	-5
157	12	22	11	-21
158	8	22	43	-14
157	3	18	56	-6
157	2	17	51	-6
157	0	15	13	2
158	3	17	-2	7
157	7	17	15	10
158	4	17	8	-1
157	4	18	0	-7
158	6	16	4	0
157	7	17	2	6
157	10	17	14	2
157	9	17	35	-1
157	3	13	32	4
158	3	15	-13	16
157	2	19	-7	17
157	-1	18	34	6
158	4	23	6	4
158	8	20	-39	8
158	5	24	-65	9
158	5	23	-34	-5
159	3	19	-36	-9
157	0	19	-34	0
158	1	14	3	3
157	5	16	8	-1
158	8	18	55	-1
158	7	17	90	3
158	8	17	84	1
157	3	14	39	-6
158	10	17	5	-16
158	15	19	-17	-11
158	13	19	44	-2
157	3	21	82	1
157	-1	22	33	6
158	3	23	28	-1
158	3	21	-8	4
158	8	17	-31	3
158	6	17	-26	1
158	6	18	-15	6
158	8	20	-12	7
158	3	19	-10	3
158	3	15	2	2
157	3	20	8	7
157	7	19	59	2
157	7	18	68	-5
158	2	11	-29	1
158	6	13	-108	9
158	4	17	-27	-4
157	1	17	8	-4
157	2	22	-28	7
158	4	19	20	2
157	3	19	24	9
158	2	19	35	9
158	3	15	6	13
158	12	13	-38	8
158	14	14	-24	-3
157	5	14	25	-4
157	7	13	48	-18
158	5	16	-9	-7
158	4	18	-20	-2
158	8	17	10	-2
157	7	17	56	-4
158	7	17	19	-4
158	8	22	-75	6
158	6	26	-54	-6
158	1	18	6	-2
158	3	17	4	6
157	7	19	21	1
157	8	21	46	7
157	8	25	53	8
158	2	18	47	3
158	5	21	31	2
158	8	22	37	5
157	8	17	34	7
158	5	17	46	9
158	3	17	34	12
158	5	16	3	2
157	5	19	-23	-6
157	2	20	-27	-10
157	3	18	-13	-7
158	6	20	-13	-7
157	6	15	8	4
157	5	17	13	11
157	7	19	9	4
157	10	19	13	-4
158	11	22	7	-8
157	7	19	-24	-6
157	10	19	-50	-6
159	5	18	-4	1
157	5	17	23	1
157	5	18	16	0
158	1	17	6	-3
157	3	16	-3	-5
158	5	15	-7	0
158	6	16	-4	6
158	4	15	14	11
157	2	18	17	4
158	3	20	29	-3
158	9	18	32	-2
158	9	20	19	2
158	7	24	21	4
157	0	24	24	6
158	-1	21	20	6
157	0	18	5	4
157	0	18	-18	0
157	0	20	-39	1
157	5	17	-28	6
157	4	14	2	0
158	2	14	6	3
158	3	13	8	3
157	2	14	6	4
157	4	17	-8	6
157	3	16	-15	-2
158	-1	18	8	-5
158	1	17	46	0
158	7	22	24	9
157	12	27	6	6
157	10	24	24	9
158	8	25	37	10
158	7	22	61	10
158	7	12	48	5
158	4	10	-5	-7
158	5	11	-22	0
158	4	11	-16	-4
158	5	10	-4	-1
157	4	14	19	0
158	3	17	5	0
158	5	19	-10	-2
157	5	19	-7	-7
158	3	19	0	0
158	8	25	22	0
158	17	23	30	4
158	13	19	36	1
158	6	15	26	-3
157	7	15	-17	-5
157	7	20	-22	-8
157	7	21	-3	-4
157	9	21	-1	0
157	6	18	0	1
158	4	15	5	9
157	2	16	15	10
158	3	17	24	4
158	5	14	-3	5
158	8	19	-35	9
157	10	20	2	7
158	3	12	16	10
157	3	17	1	4
158	5	17	29	-5
157	5	18	56	-9
157	3	17	64	-10
158	1	15	-49	8
158	7	22	-107	8
158	6	21	-2	6
158	1	19	6	9
158	-1	19	-1	6
158	-1	16	31	8
158	-1	17	21	2
158	-1	18	31	-1
158	5	17	18	0
157	5	17	2	-5
158	4	17	-3	-14
158	5	14	8	-11
158	3	12	33	4
158	3	21	27	1
157	5	19	15	-10
158	6	21	9	-7
158	9	19	12	-7
158	7	19	5	-4
158	5	19	20	0
157	4	19	25	3
158	5	19	21	3
157	4	15	18	5
157	5	19	10	10
157	6	19	16	13
158	3	16	10	13
157	3	14	-6	-1
158	5	16	-40	-1
157	7	19	-49	-3
157	5	18	-8	-9
158	3	19	14	4
157	4	19	24	3
158	4	16	31	2
157	2	22	13	7
158	4	23	33	8
158	5	21	79	4
158	6	15	46	-8
157	9	16	-105	-4
159	12	27	-162	7
158	11	26	-56	3
158	9	23	-3	-1
157	7	23	2	-4
158	4	19	-5	-2
157	5	14	25	3
158	3	16	49	4
158	3	16	36	3
157	3	17	49	3
158	4	17	35	3
158	8	17	61	-1
158	5	15	56	3
158	3	13	18	7
157	2	15	14	7
157	1	18	2	2
157	1	22	17	3
158	1	16	21	0
158	1	18	-6	0
157	0	17	-15	7
158	1	19	-5	0
158	3	22	-12	3
158	3	19	9	-1
158	7	25	21	0
158	14	22	23	15
158	14	16	23	17
157	5	12	-7	9
157	1	14	-15	-6
158	3	18	-6	-18
158	3	19	-1	-4
158	4	16	13	-1
158	4	13	21	3
158	7	15	15	7
157	14	17	14	-15
157	14	23	7	-23
157	9	25	0	-7
158	1	24	-4	7
158	5	21	-21	1
157	7	18	-27	-5
158	8	16	-32	-5
158	5	17	-43	4
158	4	16	-24	2
157	3	17	-13	1
158	0	20	1	-1
158	2	18	58	-4
157	3	19	118	7
158	3	18	91	7
157	7	19	27	8
157	7	18	30	1
157	5	18	32	-1
157	7	17	72	4
157	4	14	51	0
157	2	15	-70	2
157	7	17	-84	4
157	6	18	13	9
157	5	15	27	14
157	5	20	8	7
157	7	17	5	1
158	8	21	-39	6
158	8	21	7	2
158	5	17	35	-4
158	1	15	15	-3
158	0	17	-26	0
158	3	19	-62	-2
158	5	20	-18	-5
158	3	25	-15	2
157	5	24	-4	4
158	5	21	24	1
158	5	16	29	-1
158	5	12	33	4
158	7	19	18	6
157	5	21	10	9
158	8	14	-9	9
157	8	14	-21	0
157	7	14	-3	-1
158	8	15	10	-1
157	4	14	3	-5
157	0	13	-19	2
158	2	13	-40	-6
157	1	16	-15	-11
158	2	19	1	-2
157	5	17	10	2
157	7	21	27	2
157	8	17	26	-1
158	9	19	17	2
158	12	21	25	-6
158	8	17	45	-8
157	4	19	28	0
158	6	18	23	-2
158	0	18	32	4
157	1	18	13	4
157	4	21	-4	9
159	3	20	7	16
158	4	22	12	11
157	3	19	1	8
158	1	17	-11	12
157	1	19	-26	8
158	1	21	-7	6
158	1	22	14	5
158	3	22	30	-9
158	6	19	-22	-16
158	7	24	-54	-11
158	5	22	51	-13
158	12	16	60	-10
157	10	19	10	-5
158	4	16	16	-14
158	7	21	4	-9
158	6	15	16	2
158	7	13	21	6
157	4	15	38	12
157	8	15	37	13
158	11	18	12	7
158	8	16	11	9
157	8	15	2	9
157	4	14	6	1
157	4	16	8	5
158	4	14	5	5
158	2	18	-5	4
157	3	21	-9	6
157	3	17	1	3
158	1	17	12	2
157	-7	18	24	4
157	-1	18	13	4
157	5	17	-13	4
157	8	17	-23	7
158	15	17	20	-4
158	14	19	37	-6
158	11	17	3	-6
157	4	22	-42	-1
158	2	22	-40	9
158	5	19	1	12
158	-2	20	-11	15
157	-4	14	-2	9
157	-6	15	4	0
157	-1	17	15	-7
157	0	15	27	-2
158	4	17	27	-8
157	8	19	61	-5
157	12	17	71	-4
158	14	18	-5	-5
158	12	24	-111	7
158	-8	24	-37	0
157	-37	20	17	6
158	-32	21	-16	7
157	-11	17	16	9
158	9	18	9	11
158	10	15	37	3
157	28	17	42	1
157	50	23	30	-3
158	52	19	27	-2
158	48	20	10	3
157	29	23	10	-7
158	21	22	12	-9
158	56	22	7	5
157	119	16	7	9
158	124	14	10	9
158	83	20	-9	-3
158	6	11	-11	-22
158	-72	14	-23	-36
157	-105	15	-10	-16
157	-162	10	13	5
158	-165	13	3	-6
157	-87	17	20	2
158	11	19	21	0
157	27	22	23	3
157	13	26	21	7
158	-4	26	7	3
158	-28	23	-8	4
158	-3	24	1	7
157	-1	22	19	14
158	3	18	11	10
158	0	18	4	10
157	7	17	-14	19
158	25	15	-31	10
158	21	17	-25	-1
157	27	22	-11	0
157	32	23	-12	0
158	34	21	-4	2
158	31	16	12	-2
158	40	17	27	-5
158	39	15	58	-1
157	21	17	67	4
158	10	17	59	14
157	4	17	57	14
158	-4	19	68	3
158	-11	17	73	-4
159	-5	17	36	-10
158	1	20	-33	-8
158	0	19	-71	4
157	-2	19	-35	-5
157	-1	17	-35	-10
158	4	19	-55	-7
158	8	22	-4	4
157	7	19	1	8
157	7	19	-9	8
157	5	16	-11	6
157	2	14	-15	9
158	3	11	10	8
157	6	15	19	-2
157	7	18	6	3
157	6	16	-7	7
158	5	17	5	3
158	7	18	35	-9
157	4	21	73	-11
157	3	19	55	-9
157	7	21	-36	4
157	9	24	-60	14
158	3	10	10	4
157	3	12	15	7
158	3	19	-5	6
158	5	13	-4	7
158	5	18	-10	10
157	5	15	3	7
158	7	17	-15	5
158	3	19	-8	-7
158	1	17	-3	-25
157	1	14	8	-22
158	3	17	30	-6
157	5	15	52	3
158	6	14	126	-3
157	4	20	98	-3
158	6	23	-42	2
157	9	26	-95	-9
157	6	17	-40	-2
158	4	12	-59	1
158	5	16	-14	-1
158	3	17	13	9
158	4	22	-10	3
157	3	21	74	-6
158	5	22	69	-1
157	8	22	57	6
158	5	21	33	11
157	5	20	8	19
159	3	18	9	16
157	5	23	2	5
158	8	21	5	0
158	5	22	-13	1
158	9	21	-20	4
158	8	22	-29	-4
158	5	19	-35	-5
157	7	18	-27	4
158	10	18	36	7
157	7	15	86	3
157	4	15	64	-9
157	0	14	5	-2
158	1	17	22	5
158	1	14	69	0
157	3	15	28	0
158	7	23	-5	-1
158	7	21	-22	0
158	8	21	-18	-1
158	3	15	-19	6
158	5	14	-13	2
158	6	18	9	-3
158	7	17	16	0
157	11	19	18	4
158	8	20	20	13
157	7	18	31	20
158	5	19	24	14
158	4	17	-8	6
157	3	15	-30	6
158	4	17	-17	3
158	7	19	-15	4
157	3	20	-24	2
157	3	17	-18	2
157	3	17	-7	-2
158	3	16	15	-9
158	5	17	25	-19
158	6	15	18	-16
157	2	17	2	-6
157	2	18	8	-2
157	2	12	-11	3
158	1	16	-35	2
158	4	16	-13	6
158	9	19	-3	6
158	4	19	10	2
158	3	14	19	-1
157	3	14	22	-4
158	4	17	31	-2
158	8	21	42	0
157	11	23	47	-1
157	8	24	30	2
157	5	19	16	3
157	4	21	5	0
157	4	16	-9	-2
157	3	13	-12	2
158	5	16	-27	13
158	5	16	-47	3
157	3	18	-19	-4
157	1	18	16	4
157	1	15	31	4
158	0	15	35	9
157	0	17	29	9
158	1	19	66	6
158	1	21	116	8
158	3	17	57	3
157	1	16	-70	11
157	5	25	-115	2
157	13	24	-15	-17
158	13	22	67	-15
158	8	22	-1	-12
157	15	22	-104	-1
158	13	22	-47	1
158	5	18	-8	-4
158	10	15	-9	-3
158	6	17	78	1
157	4	19	68	3
157	5	15	9	1
158	7	18	-62	10
158	8	17	-40	7
157	3	13	27	4
157	5	18	20	3
157	5	18	54	2
158	10	22	52	6
157	7	21	21	3
158	4	19	18	3
157	7	19	17	3
159	4	20	10	7
158	5	20	13	8
158	4	19	25	6
158	5	21	20	7
158	5	18	28	9
158	7	17	25	1
158	5	17	14	-6
158	8	18	-3	5
157	10	18	-22	12
158	9	18	-19	4
157	5	19	-1	-7
158	2	19	-4	-9
157	3	15	15	-6
158	-3	14	41	-3
157	-8	12	22	-5
158	-5	19	-9	-8
157	5	22	-14	-7
158	20	19	-10	-5
157	13	18	-11	5
157	1	17	3	6
158	4	21	1	0
157	4	20	3	7
158	1	21	17	11
157	-7	18	21	5
158	-5	25	22	-2
157	8	25	10	-6
157	12	24	2	-5
158	7	22	0	-4
158	3	19	-3	1
157	2	18	-1	2
158	0	17	1	-8
157	0	13	0	-11
158	1	14	-10	-1
157	1	15	-20	3
157	3	17	-13	7
158	8	17	5	8
157	10	15	20	7
158	10	17	28	4
157	11	15	32	7
158	7	12	63	13
158	7	13	85	11
158	3	15	10	1
158	5	22	4	-4
158	7	25	27	-5
157	5	21	-21	-6
158	6	19	-15	0
157	11	22	-12	-3
158	14	24	-8	-3
158	8	21	-4	6
158	8	19	5	12
158	7	17	18	12
158	3	15	21	8
158	2	16	22	3
157	-1	17	26	1
159	3	19	26	4
158	4	22	6	-2
158	2	17	-2	-7
158	3	15	-44	-4
158	1	17	-67	-7
157	3	19	-36	-7
158	7	23	1	2
157	8	18	6	1
158	5	15	27	-2
158	5	15	23	2
158	7	18	-15	4
157	4	18	39	3
158	3	14	55	-5
158	5	15	-54	3
158	10	22	-85	7
158	10	21	-3	9
158	7	17	14	13
158	4	19	8	10
158	5	15	33	3
157	7	18	29	-4
157	4	17	25	-2
158	5	16	38	1
157	5	17	43	1
158	5	19	51	-1
158	5	21	26	-7
158	2	18	-5	-17
158	1	17	41	-12
157	0	18	78	7
158	-1	15	-19	12
157	0	17	-119	18
158	3	19	-25	16
157	1	19	55	17
158	3	17	53	16
157	10	11	57	4
158	9	18	-23	-5
158	8	18	-31	-15
158	6	19	-10	-15
158	8	25	-2	-16
157	5	18	10	-6
158	5	19	-3	-3
158	8	18	16	-3
158	1	15	2	6
157	2	17	-8	0
157	1	19	-6	-7
157	1	19	16	-4
157	2	18	41	4
158	5	17	38	-6
158	3	16	5	-11
158	5	18	-40	5
158	7	17	-11	10
159	7	17	27	11
157	4	17	11	20
158	3	19	8	16
157	5	18	4	10
157	0	15	-18	7
158	3	14	-15	3
157	3	19	-15	-9
157	4	19	-4	-2
158	6	18	0	6
157	3	21	1	3
157	4	19	15	10
158	8	23	15	4
157	4	21	21	4
158	4	23	11	9
158	5	23	13	7
157	5	18	19	9
157	3	17	19	-4
158	4	19	15	-8
158	8	21	18	-9
158	8	19	31	-6
158	3	13	33	3
157	0	10	21	-2
158	-1	16	-10	2
157	3	21	-5	3
157	3	19	18	-5
157	3	21	2	-3
157	14	24	4	2
157	27	21	17	5
158	21	24	19	-1
157	9	19	2	-2
158	2	17	-40	-1
157	4	18	-57	0
158	7	17	-17	4
157	8	19	20	3
158	9	17	38	1
159	3	17	42	2
157	5	16	30	0
158	3	17	39	2
158	7	14	29	4
157	5	15	-11	10
157	6	17	-56	7
157	5	15	-42	3
158	3	17	-13	6
158	4	13	-14	-1
158	1	15	24	-9
158	1	17	66	-9
158	3	18	38	-5
157	2	23	-9	2
158	1	23	6	3
157	4	20	4	7
157	3	22	9	5
157	7	20	39	-3
158	7	16	34	-10
157	6	22	40	-13
158	6	19	29	-8
157	7	19	10	-3
157	5	19	8	-2
157	5	19	-3	6
158	7	14	-27	13
158	6	16	-41	6
158	5	18	-19	4
158	5	17	-44	6
158	5	18	-48	2
157	7	15	-6	4
157	2	18	9	3
157	3	18	28	-4
158	0	17	36	-6
158	1	19	31	-6
157	1	18	15	-6
157	1	19	22	-2
157	3	21	45	2
157	6	18	58	4
157	4	19	71	3
158	5	21	56	9
157	7	18	-41	8
158	7	19	-144	8
158	8	18	-61	2
157	3	14	12	5
158	4	19	2	7
158	8	17	72	-7
157	5	17	90	-9
158	7	21	39	-7
158	9	21	24	-1
158	9	21	23	4
157	7	12	-15	9
158	7	13	-40	4
158	6	18	-36	2
157	3	17	-24	7
158	5	17	-8	12
157	6	17	-4	7
158	5	19	9	2
157	4	18	59	2
158	5	15	61	-4
157	5	20	-38	2
158	10	26	-63	2
157	8	21	33	-5
158	3	17	36	-2
157	1	23	-3	-2
157	-1	24	11	-3
157	1	21	3	1
157	5	20	19	0
157	7	21	15	-1
157	5	19	19	0
158	3	19	17	2
158	4	16	1	11
158	4	14	9	12
158	4	17	8	10
157	3	17	10	4
157	5	17	-1	5
157	5	15	0	7
158	3	13	-1	6
157	3	15	-4	6
158	3	17	15	0
157	4	15	17	6
158	1	11	-18	7
157	2	15	-68	-16
158	2	22	-42	-21
158	0	17	62	-14
157	2	12	74	-8
157	4	15	1	-4
158	4	21	20	-4
158	9	21	52	-2
157	9	21	34	2
158	11	23	53	5
158	8	22	36	8
157	6	22	20	1
157	9	22	24	12
157	16	19	0	7
158	11	18	-31	-10
158	2	19	-84	-7
157	5	15	-69	0
158	10	18	-47	0
158	10	14	-44	4
158	4	16	-24	-2
158	3	15	-6	-7
157	0	13	20	2
157	0	17	28	3
158	7	16	49	7
158	9	18	78	7
157	7	20	68	4
158	4	21	32	9
157	5	23	15	8
158	4	21	21	3
158	5	19	18	-4
158	4	19	20	-6
158	4	23	21	3
158	1	18	25	10
157	-1	17	20	4
158	3	17	16	1
157	1	17	41	0
157	5	17	9	-4
157	4	18	-96	0
157	8	24	-105	4
157	5	21	2	3
157	5	15	6	11
157	6	15	-18	11
157	6	15	0	13
157	4	15	3	14
157	5	16	27	6
157	4	17	10	6
158	3	18	19	0
158	5	20	14	0
158	10	22	8	-1
157	5	19	15	-1
158	8	20	12	0
158	4	19	25	-7
158	5	22	7	-15
158	5	18	11	-16
157	5	19	10	-8
158	5	20	15	-5
157	4	17	19	-4
158	7	18	14	-5
158	6	18	18	-2
157	5	19	15	-7
158	3	21	12	-4
157	4	22	-16	3
158	7	18	-20	2
158	5	17	18	3
158	4	17	16	4
157	3	14	14	9
157	5	17	36	8
158	7	20	27	11
157	8	19	13	4
157	8	19	-4	3
158	5	21	-28	2
157	5	19	-38	5
159	5	17	-6	7
158	7	17	-3	1
158	6	18	-4	1
157	3	13	41	-3
158	-1	9	37	-5
158	1	18	19	-8
157	5	18	-2	-5
158	5	18	-13	0
158	3	19	-30	2
158	3	18	-33	10
158	4	17	10	6
158	3	15	35	1
159	0	11	20	7
158	5	17	1	2
158	7	17	9	-5
157	5	15	47	-3
158	7	17	93	-4
158	5	14	87	-9
157	5	19	-14	-12
157	8	25	-73	9
158	9	17	8	9
157	3	15	15	3
158	8	23	-9	-7
158	7	24	12	-11
158	7	22	8	0
158	8	20	29	3
158	5	15	17	10
157	6	16	-3	3
157	3	17	-16	5
158	4	18	6	9
158	5	20	20	8
158	2	21	3	9
158	4	19	-3	10
158	8	22	-14	6
157	7	20	-3	6
157	4	18	9	6
158	-1	13	8	7
158	2	13	-13	0
158	4	18	-23	-10
157	3	19	-28	-9
158	5	19	-17	-16
158	3	22	14	-15
158	0	21	54	-13
157	4	16	54	8
157	4	15	-2	21
157	3	17	36	13
157	8	19	64	6
158	14	25	-11	2
157	7	18	-97	7
157	7	19	-74	6
157	8	14	40	4
158	5	13	25	-1
158	10	16	33	-5
157	3	15	19	-8
157	7	18	-20	-7
157	13	17	18	-1
158	12	19	-5	7
157	8	21	21	8
158	-1	21	26	7
158	0	17	20	6
157	-1	16	12	4
157	1	19	12	4
158	3	18	38	7
157	3	22	33	4
158	2	19	26	-6
157	4	17	-21	3
157	5	15	-48	9
158	8	16	-27	2
158	11	18	0	2
157	5	17	13	1
157	4	21	7	-4
158	0	19	-4	-3
158	1	21	0	-6
158	0	17	-3	0
158	2	17	-11	0
158	5	21	-15	2
158	4	21	-24	4
158	3	18	-9	4
158	3	17	48	1
158	4	19	146	-10
157	4	19	135	-9
158	5	21	27	-3
157	5	22	25	4
158	2	19	14	-1
158	7	19	-5	-3
158	5	17	-7	3
158	4	24	-8	-1
158	4	17	4	9
158	5	16	-9	13
158	7	18	0	2
157	5	19	-15	-6
157	2	22	-24	3
158	4	18	-13	1
157	6	19	1	-1
158	6	22	9	-1
157	6	16	13	-7
158	9	17	4	3
157	10	19	-21	0
158	6	16	-14	4
158	7	17	-1	7
157	4	17	10	6
158	7	15	19	9
158	8	15	25	8
157	5	17	25	8
158	3	18	2	4
157	4	17	-22	4
157	5	15	-4	-2
158	5	15	-7	-4
158	5	18	-42	-7
157	5	19	-43	-17
158	0	19	-21	-4
157	3	21	10	2
157	2	19	34	3
158	1	15	46	6
157	3	16	21	12
158	4	17	8	7
158	7	18	22	-3
157	7	21	21	-6
158	7	21	27	-8
157	8	23	4	3
158	8	22	-2	4
157	8	19	6	6
157	6	16	21	3
157	3	13	45	-7
158	3	13	20	-10
158	5	19	-33	-10
158	8	23	-24	-6
157	5	17	57	-13
157	5	17	27	-5
158	3	17	8	0
158	2	20	29	4
157	5	20	1	4
158	5	17	25	4
157	9	22	10	12
158	7	22	0	12
157	5	19	9	17
157	4	18	13	20
158	7	21	8	7
158	9	23	-16	1
158	3	19	-16	12
157	3	11	-19	10
157	4	11	-7	-2
158	1	14	17	-9
158	0	10	28	-8
157	3	16	31	-5
157	5	17	39	-2
158	4	19	41	-2
157	8	18	-20	0
158	5	19	-116	13
158	6	18	-54	11
158	0	13	35	-1
157	6	22	0	-9
157	15	24	26	-3
158	13	21	21	2
158	10	17	30	-4
158	5	16	57	0
158	5	17	35	-5
158	5	18	-14	-6
158	7	19	-56	-3
157	4	17	-15	-4
157	2	17	-27	1
157	4	19	-3	-2
157	3	18	25	4
157	2	17	14	7
158	2	19	49	2
158	4	21	38	3
157	1	18	34	4
158	3	19	23	9
158	4	19	14	15
157	4	19	12	11
157	5	19	-6	15
158	6	18	10	10
158	3	16	38	7
157	1	18	36	10
157	0	15	-1	-3
157	-2	12	-46	-6
158	3	12	-31	-2
157	4	15	-19	1
157	5	18	-31	3
157	8	20	1	3
158	8	20	13	2
157	7	16	28	3
158	5	21	-4	1
157	6	21	-17	-11
157	6	18	25	-10
158	5	21	30	-12
158	5	18	35	-12
158	8	19	14	-7
158	10	20	8	-5
157	9	17	0	-1
157	10	18	2	0
157	5	19	17	10
158	7	18	18	12
157	5	16	21	11
157	3	13	16	10
157	4	14	27	4
157	3	17	24	1
157	5	18	13	-5
157	8	23	1	-4
157	5	19	5	-2
158	4	17	-3	0
157	1	13	-14	0
158	1	17	-15	-1
157	3	21	-36	2
157	5	23	-21	10
159	5	24	13	13
158	8	21	32	14
158	7	23	33	3
157	2	22	33	-6
157	7	24	36	-5
158	5	23	19	2
157	3	17	10	3
158	5	22	6	-13
157	6	22	5	-9
157	7	16	-8	-5
158	6	11	-16	-7
157	7	11	1	5
158	5	14	17	9
158	5	18	27	-2
158	5	18	15	-6
158	7	22	0	-2
157	7	18	5	7
158	4	18	13	6
157	5	20	26	9
157	8	23	16	7
158	6	25	-27	7
158	5	19	-63	10
158	7	17	-74	3
157	1	13	-45	-2
158	1	15	-11	-10
158	1	18	-18	-1
158	3	15	16	-7
157	3	16	88	-4
158	2	20	113	6
157	5	22	72	-1
158	4	21	20	0
157	4	17	51	5
157	5	17	49	7
157	6	17	-17	2
158	5	16	-15	7
158	4	19	35	2
158	0	19	40	-12
158	0	14	-53	-2
158	2	21	-98	4
157	3	24	-15	2
158	1	22	17	3
158	1	21	0	3
157	8	19	6	6
158	14	21	-15	7
157	10	17	-13	0
158	5	17	8	-1
157	9	17	57	-8
157	5	16	38	-16
158	5	19	-86	-2
158	10	22	-92	3
158	9	15	10	5
158	6	10	8	10
157	7	15	13	0
158	3	13	65	3
158	4	17	64	12
158	5	19	69	10
157	3	16	-8	8
157	7	16	-12	-2
158	7	14	16	-4
158	9	15	-5	0
158	7	15	12	3
158	7	17	-8	4
157	9	17	-10	10
158	5	16	-2	12
157	6	16	14	6
157	5	17	21	1
157	4	18	20	-1
158	7	18	13	-7
157	8	15	13	-7
158	1	17	18	1
157	2	19	8	1
158	1	22	5	-10
157	1	23	9	-4
157	1	18	28	6
157	0	16	37	3
157	3	18	32	3
158	5	18	29	3
157	4	17	39	6
158	3	21	31	-2
158	7	24	1	0
158	8	22	-21	3
157	5	18	-4	-5
158	5	17	-8	-9
158	5	23	-37	0
158	5	19	-5	0
158	5	22	5	-6
158	5	21	26	-2
158	4	18	31	0
157	5	20	-7	7
158	2	16	-27	-3
157	5	17	-59	-6
158	5	15	-8	-4
158	5	17	14	0
157	10	23	-30	7
158	5	21	-5	4
158	8	21	9	2
157	9	18	27	4
157	10	17	34	9
157	5	15	15	1
157	4	18	5	3
158	8	19	-1	10
158	4	21	0	-1
157	5	19	0	-2
158	4	16	-10	-4
157	0	19	-21	5
157	2	21	-9	10
158	3	17	7	10
158	5	15	23	7
157	5	17	2	7
158	7	14	-14	11
157	5	17	13	4
157	3	21	30	7
157	5	20	45	9
158	5	18	47	3
157	4	21	43	-1
157	6	22	48	-4
158	8	15	28	-2
158	3	14	5	-9
157	1	14	7	-19
158	0	16	19	-13
157	-1	16	9	-9
158	0	18	13	-2
157	5	18	17	5
157	10	17	17	0
158	7	21	52	6
157	5	19	84	9
158	2	14	39	2
157	1	17	-103	2
158	6	22	-114	6
157	-2	17	28	-4
158	-4	14	67	-4
157	0	14	45	5
158	5	18	-59	14
158	8	23	-90	21
157	7	19	10	4
157	12	21	-10	-1
157	19	22	-7	-8
158	16	21	-7	2
157	12	26	-24	7
158	8	25	-1	4
158	1	22	0	10
158	2	17	-30	3
158	1	19	-79	-1
157	4	22	-61	-4
157	8	19	-15	12
158	8	14	49	23
158	7	11	85	10
157	2	10	126	0
157	1	15	145	2
157	2	19	72	-4
158	3	17	31	-7
158	5	19	8	-5
157	5	17	-33	-13
158	5	18	-32	-8
158	1	15	-2	-6
157	1	16	6	-9
158	3	17	13	-6
158	3	18	-20	-5
159	3	19	-30	-5
157	3	18	-18	6
158	5	19	4	13
157	4	17	52	6
157	5	16	51	6
157	7	15	23	7
158	3	12	-14	1
157	5	17	-23	-11
158	6	19	-9	-9
158	7	17	-14	5
158	7	21	-6	9
158	5	22	1	11
157	5	19	2	3
158	5	17	6	-9
157	6	18	1	-10
158	7	20	8	-12
157	5	19	17	-6
157	6	19	21	1
157	6	21	20	2
158	8	24	10	7
157	7	20	2	4
158	4	18	-7	2
157	9	19	-13	-2
158	5	19	2	3
157	3	14	13	-1
157	1	13	15	-6
157	5	14	-6	7
157	9	23	11	7
158	7	18	36	3
158	3	15	4	7
157	6	20	-1	2
158	8	19	-15	-1
157	5	20	36	2
158	1	16	42	8
158	5	17	-71	4
157	8	23	-87	2
157	5	19	19	3
157	4	15	53	10
157	7	21	48	7
158	8	16	71	-5
157	7	21	26	-2
158	4	22	25	-1
158	5	16	27	-8
158	4	15	18	-2
157	4	15	27	5
157	3	19	22	0
157	2	18	6	0
157	4	21	-15	7
158	5	18	0	5
158	3	18	-6	10
158	7	21	-12	11
158	7	19	-6	4
158	5	22	-15	6
159	5	19	-5	9
158	4	21	30	6
157	4	17	92	-1
158	5	13	69	-6
158	12	17	-54	-10
157	12	20	-122	-1
158	5	15	-60	-3
157	4	14	-21	-6
157	3	17	-19	6
157	4	15	31	6
157	2	18	61	8
157	4	17	58	2
158	3	17	33	-4
158	7	18	5	2
157	11	19	-9	4
157	7	17	-2	3
158	4	16	13	1
157	5	19	-5	-6
158	2	17	-24	-4
157	5	15	2	2
158	4	17	42	-2
157	0	16	37	-7
158	-2	17	33	-17
157	-1	19	20	-5
158	-3	23	14	7
158	1	23	18	1
157	7	24	13	0
157	7	26	3	0
158	3	23	-4	0
157	7	21	-8	0
157	5	18	-8	0
157	4	19	-8	4
158	7	19	-13	2
157	5	19	-3	0
157	8	19	-5	3
158	8	17	6	2
158	5	17	28	7
157	8	19	17	8
157	7	17	-1	11
158	3	15	6	16
157	5	12	29	16
158	2	13	13	7
157	1	15	-2	3
157	3	16	15	5
157	3	18	26	2
158	4	19	-8	11
158	7	21	-10	2
158	6	19	9	-1
157	6	18	-11	4
156	5	19	-30	-8
157	5	19	-27	-15
158	8	20	-12	-29
158	3	16	7	-23
157	6	17	18	-15
158	7	20	8	-11
157	4	22	15	-1
157	8	21	19	9
157	4	16	18	9
157	1	18	20	0
157	3	19	13	1
158	4	17	10	13
158	5	17	-7	14
158	3	20	-25	3
158	5	19	-32	2
158	5	15	-11	4
158	3	16	24	9
158	8	18	56	13
158	7	21	109	12
157	7	21	89	8
157	7	19	14	4
157	4	17	5	-1
158	4	18	58	-2
158	1	17	103	-1
157	3	18	-8	0
157	3	19	-119	0
157	4	19	-49	5
157	8	20	7	4
157	8	20	8	4
158	7	18	38	8
158	6	19	30	14
158	3	19	7	23
157	1	14	-22	20
157	3	17	-4	6
158	6	14	77	-2
157	5	12	71	-19
157	4	17	-64	-14
158	10	22	-112	-2
159	4	15	23	-14
157	0	14	22	-15
157	5	15	-17	-16
158	5	15	-7	-12
157	7	22	-11	-11
158	6	18	17	-10
158	2	19	-6	3
157	5	14	3	11
157	6	11	-5	9
158	8	17	-13	-1
158	4	16	-14	2
157	5	15	5	-2
158	5	18	28	4
158	8	20	-13	3
158	3	21	0	-1
159	6	17	-8	-2
158	6	15	-1	6
157	5	18	15	15
158	7	22	17	7
158	12	22	33	9
157	12	21	25	3
158	6	21	40	-1
158	5	22	6	0
158	5	24	-19	3
158	3	22	14	1
157	5	19	19	-4
158	5	18	19	-1
159	4	17	17	7
158	8	19	20	9
158	3	17	24	2
159	3	21	7	-6
158	-1	18	-3	-1
157	1	13	-2	0
158	1	17	2	-6
157	3	16	4	-1
158	5	16	2	-1
158	4	16	-7	2
157	3	19	10	-1
157	3	19	15	1
157	3	19	13	11
157	5	17	33	22
157	3	13	34	15
158	5	16	5	5
158	6	15	-12	2
158	6	20	16	-9
157	7	19	18	-3
157	5	17	2	2
157	8	22	2	5
157	11	23	2	13
158	8	19	-25	2
158	10	19	-55	0
157	10	21	-19	0
158	8	15	1	-6
157	5	14	8	1
158	4	14	6	2
157	4	14	-20	-11
158	0	19	-16	-16
157	2	17	-5	-8
157	5	22	1	-14
158	3	26	-14	-8
158	5	18	5	-4
157	3	19	44	-2
158	5	21	36	8
157	7	22	16	11
157	8	20	13	14
157	5	18	16	14
157	3	15	31	13
159	5	18	51	13
157	6	17	61	13
157	7	18	87	-1
157	7	15	41	-6
158	4	17	-15	-2
157	2	22	8	-9
157	3	22	1	-10
157	3	23	-15	-5
157	4	17	-13	3
157	7	14	-3	4
158	9	21	3	0
158	9	22	2	2
157	11	14	13	4
157	5	11	4	4
157	3	14	16	0
157	3	15	21	-1
158	3	13	4	1
158	4	16	-9	7
157	2	16	-24	3
158	2	20	10	5
158	1	22	68	4
156	-1	15	51	-1
158	-2	17	-41	-6
157	2	19	-37	-8
158	3	17	34	-4
157	2	19	-55	2
157	3	24	-100	1
158	5	18	-21	-2
158	5	15	13	3
158	7	18	17	0
157	12	26	21	-1
158	8	24	26	9
158	4	17	-4	7
157	4	18	-25	5
158	2	17	-8	0
157	3	14	16	-1
158	4	16	8	6
158	7	18	8	7
158	4	19	10	8
157	7	19	-8	4
157	5	15	-8	0
158	5	15	-20	2
158	7	20	-20	5
158	10	21	3	-2
157	5	21	24	-6
157	3	23	48	-3
157	13	24	107	-3
157	15	22	110	-2
157	10	19	50	-2
157	4	15	39	0
158	8	16	30	4
157	4	14	19	9
158	3	13	15	14
157	3	18	6	10
158	1	17	5	7
158	4	19	11	2
158	4	22	18	-2
158	3	21	-2	-6
158	3	19	-44	-7
158	4	17	-91	-6
159	4	19	-71	-6
158	5	22	-49	-2
157	2	17	-35	3
157	2	22	4	2
158	1	21	27	2
157	2	20	71	3
158	8	19	67	7
157	5	19	24	14
157	4	18	29	9
157	1	13	31	1
157	4	14	5	-2
157	4	17	-18	-2
157	2	21	-32	-1
158	1	21	-14	2
157	3	15	6	11
157	5	12	-14	15
158	3	17	-9	3
158	6	20	15	6
158	5	17	34	2
158	11	17	39	-2
157	18	19	17	-3
158	15	17	-1	2
157	9	13	-18	7
158	2	16	-40	-10
158	-1	21	-16	-13
158	1	19	19	-19
158	5	20	0	-13
157	5	17	13	-3
158	4	15	34	1
157	9	18	44	4
157	9	16	27	-1
158	6	17	-5	7
157	5	19	-2	6
157	8	19	-7	6
158	5	21	8	3
157	5	18	23	2
158	2	17	42	7
158	1	19	89	9
158	2	13	137	13
157	2	13	69	4
158	1	17	-88	-2
158	5	22	-99	-1
157	7	18	-20	-4
157	3	21	-41	-12
157	5	20	-45	-9
158	3	22	-13	-2
158	3	21	1	-3
157	5	17	35	0
158	6	19	23	-3
158	5	19	24	-2
157	7	19	7	0
158	5	18	-19	2
157	4	17	16	11
157	3	17	50	7
158	5	17	65	-7
158	4	17	-4	-4
158	4	25	-78	2
158	6	22	2	-6
157	0	12	23	-2
157	5	21	-44	7
158	9	19	-1	3
157	9	19	14	6
157	6	18	-1	14
157	5	17	8	8
157	7	19	4	3
157	6	19	7	-3
157	5	15	7	-4
158	7	19	14	-2
157	5	21	11	6
157	5	15	4	10
158	5	15	-14	9
158	4	14	-19	12
159	4	14	-10	10
158	4	17	-10	13
158	7	19	4	9
157	9	17	16	4
158	7	19	23	-5
157	7	14	25	-13
158	1	8	32	-8
157	-1	7	41	-5
158	3	14	29	-13
158	2	19	15	-22
158	1	20	28	-6
157	9	23	48	6
158	11	21	60	1
158	5	19	30	1
157	7	21	4	0
158	8	22	6	10
157	9	19	-6	8
157	9	22	7	6
158	7	19	6	7
157	10	15	15	2
158	7	20	15	8
158	5	19	-10	8
157	1	17	-6	7
158	0	18	-16	10
158	3	22	-20	4
158	2	22	-16	-6
158	5	24	-30	-1
158	6	21	-20	13
157	4	19	8	9
158	4	20	16	10
158	3	19	20	6
157	2	18	16	4
158	0	20	-5	11
158	3	18	2	7
158	5	20	33	10
157	2	16	28	14
157	2	11	-16	-6
158	4	15	-80	-24
157	3	15	-61	-21
158	5	18	20	-11
157	6	18	10	-5
158	6	16	4	0
157	9	21	13	-4
158	5	19	15	-2
157	7	22	36	-3
157	4	21	56	-11
158	5	13	85	-8
157	5	14	40	-1
157	5	19	5	2
158	4	21	-2	7
158	3	19	-13	0
158	4	18	7	-6
158	5	19	14	-2
157	7	19	14	-1
158	7	20	3	4
158	4	19	-1	7
158	5	18	-2	4
158	5	18	-6	2
157	5	17	15	0
157	6	15	24	7
158	7	16	14	4
158	3	17	10	-1
158	3	17	30	2
158	4	16	53	14
157	2	17	57	7
157	3	19	-32	4
157	5	18	-152	11
158	10	20	-116	6
157	8	14	-27	2
158	6	13	-12	0
158	9	21	65	-2
157	8	15	84	-3
158	9	20	20	8
158	5	18	45	13
158	3	12	55	0
157	5	21	5	-9
157	4	19	5	-11
157	5	19	-7	-6
157	5	23	-12	2
157	4	21	16	-1
158	3	17	6	-5
158	1	17	10	-7
157	4	16	9	-4
158	5	16	42	6
158	5	18	59	2
158	7	15	53	2
157	7	17	38	2
158	9	23	19	-1
157	6	20	20	-3
158	6	24	15	0
157	11	21	14	3
157	8	18	-7	6
158	8	19	12	6
158	5	16	14	7
158	1	15	-52	14
157	4	22	-58	14
158	5	18	-1	8
158	7	19	10	8
158	3	19	-9	2
157	0	13	-12	-4
158	0	16	-30	-2
159	-1	18	-31	-7
158	-2	19	-39	-2
157	0	18	-19	6
158	4	19	20	7
158	3	17	37	6
157	10	19	16	3
157	14	17	1	-10
158	10	15	22	-14
158	16	17	-6	-4
157	15	18	-47	-1
158	5	25	-62	8
157	-1	25	18	9
158	-3	18	80	6
158	-1	18	64	9
157	6	14	84	12
158	8	11	37	0
157	3	22	-15	-17
157	1	21	-12	-6
158	3	19	18	-2
158	4	21	35	-1
158	8	19	21	0
157	8	22	21	3
157	4	14	-6	12
158	1	13	-17	5
158	3	18	-16	1
158	3	19	-27	2
158	2	21	-9	2
158	-1	19	10	6
158	0	17	32	9
157	1	17	88	7
157	1	17	84	-2
157	4	15	-44	2
157	8	22	-102	-1
158	4	21	12	-7
157	4	14	30	-3
157	4	16	-24	0
159	4	21	-30	4
158	4	19	-28	-3
157	7	19	-9	-2
157	9	18	-7	4
158	12	20	3	8
157	10	18	12	5
157	9	15	32	-1
158	12	17	30	-10
157	7	17	16	-9
157	7	17	4	-6
157	9	21	9	-15
158	11	21	40	-12
157	9	22	70	-6
158	7	19	91	-3
157	5	15	-14	-1
157	4	25	-87	6
158	8	25	16	0
158	1	19	32	-1
157	3	19	-2	5
157	4	19	33	4
158	3	16	25	8
158	5	14	33	2
157	1	19	17	2
157	4	21	-1	2
157	4	19	5	9
158	1	16	-6	9
157	1	15	-3	9
158	3	17	-15	20
157	5	15	-10	12
158	5	17	-15	4
158	4	16	9	8
157	1	15	36	7
158	4	17	23	6
157	5	17	15	9
158	5	16	9	-1
158	6	22	10	-4
158	4	17	5	-1
158	5	16	-4	-5
157	3	19	-24	-2
157	3	17	-35	0
158	5	18	-23	5
158	5	19	-18	2
157	8	21	1	-2
158	10	22	15	3
157	5	17	43	-1
159	4	17	47	0
158	3	19	-2	4
158	4	17	5	4
158	4	15	28	3
158	3	15	16	2
157	3	17	19	-4
158	3	18	14	-6
157	3	15	11	-3
158	5	17	-7	0
158	5	21	16	0
158	2	22	36	-1
157	5	18	-6	1
158	5	17	-1	7
157	5	17	4	9
157	5	22	5	14
158	11	24	18	13
157	17	15	16	4
157	9	13	-13	-11
158	6	21	-37	-7
157	6	21	1	9
158	3	15	23	2
158	8	15	-49	8
158	7	18	-73	-8
157	4	19	-8	-21
157	5	20	1	-13
158	6	21	6	-18
158	7	22	19	-15
157	5	18	21	-9
157	7	18	44	0
158	4	17	32	3
158	5	17	30	1
158	5	19	37	0
158	3	17	32	7
158	7	17	26	7
158	4	17	19	6
158	3	13	1	12
158	1	15	-17	8
158	1	19	-3	4
157	5	17	4	4
157	1	18	9	7
157	2	16	13	7
158	1	15	19	2
157	3	18	71	-2
158	5	17	49	-4
157	5	19	-66	0
159	10	23	-88	1
157	8	20	8	-7
157	3	17	43	0
158	5	21	59	-1
157	7	22	43	-3
157	8	23	-1	-3
157	8	23	-25	-3
157	9	25	-52	8
157	7	22	2	4
158	2	22	0	7
157	5	20	-2	9
158	3	19	12	4
157	4	21	-8	2
158	4	14	2	7
157	5	17	-10	8
158	4	17	-1	7
158	3	17	5	9
158	1	19	27	4
157	4	13	45	9
157	3	15	43	10
158	1	18	48	6
158	4	15	62	11
157	4	15	35	0
158	3	20	-67	-1
158	8	26	-83	2
158	11	21	19	-8
158	4	17	37	-1
158	4	19	7	4
157	3	21	29	2
158	5	20	50	3
157	7	14	38	-2
157	5	18	16	-6
157	7	18	43	-2
158	8	21	51	-2
157	5	16	17	-16
157	5	15	-16	-21
158	2	17	-92	-10
157	4	14	-100	0
157	8	18	-14	-4
158	11	19	-8	-11
158	9	19	1	-5
157	5	18	2	4
158	4	19	5	9
158	3	21	11	4
158	1	19	0	7
158	-1	17	13	12
157	1	12	13	12
157	1	15	18	11
157	4	18	0	13
158	8	21	-1	9
157	4	18	8	-4
157	7	22	16	1
157	3	17	18	7
158	3	17	10	2
158	6	15	24	5
157	7	17	37	2
157	9	23	43	2
158	8	20	16	0
157	8	23	-23	-3
157	3	18	-30	4
158	4	19	-9	4
157	10	19	5	3
157	8	19	3	2
158	4	19	17	4
159	9	22	23	4
158	5	16	26	-4
158	4	14	17	-6
157	4	17	-20	-6
157	7	17	-26	-8
158	7	16	3	-3
157	5	14	16	-1
157	7	15	13	-3
157	4	19	-18	11
157	6	22	-27	15
157	5	18	29	-1
157	3	15	29	0
158	7	17	6	-2
158	0	18	13	4
158	2	18	50	6
158	3	18	78	5
158	3	21	-7	6
157	6	25	-92	4
158	4	19	0	-1
157	2	16	68	-5
159	1	19	40	9
158	5	17	46	5
158	3	16	9	8
158	1	15	15	11
157	4	18	6	11
158	5	21	-14	10
157	5	19	-7	6
158	4	16	13	-3
158	1	15	35	-15
158	3	19	17	-8
158	5	20	15	-5
157	7	18	-20	-6
158	6	21	-39	-9
157	5	23	-59	-15
158	7	18	-49	-18
158	6	22	3	-13
157	7	22	22	-15
158	6	19	20	-14
157	4	19	12	-5
158	5	19	16	7
157	9	18	8	10
157	5	20	12	10
158	5	21	10	10
157	2	17	2	13
158	5	18	7	11
158	8	19	19	9
157	5	19	18	16
158	6	17	10	8
157	5	12	18	2
157	4	8	7	9
157	2	10	-10	6
157	1	9	-15	-4
157	-4	12	15	-5
158	0	15	47	-2
157	1	14	2	0
158	0	21	-59	10
157	6	24	4	9
157	8	17	49	9
157	15	18	17	11
158	14	18	10	3
158	15	24	-20	3
157	15	26	-2	0
157	10	20	10	3
158	9	20	10	1
157	4	17	13	-2
158	2	17	2	-4
157	3	19	20	-5
157	5	19	25	-11
158	4	17	49	-18
158	5	19	28	-11
157	7	17	7	-6
158	4	17	10	4
157	7	17	5	0
158	8	18	-2	-13
157	8	19	-1	-2
157	3	18	7	11
158	5	18	-7	10
157	4	15	4	19
157	4	15	11	12
158	3	16	9	9
158	3	15	4	11
158	1	16	-18	3
158	0	17	-49	0
158	2	19	-54	-2
157	0	17	-55	1
157	3	13	-28	-7
158	4	14	22	0
158	3	18	10	12
157	8	26	69	14
158	15	27	157	18
157	10	17	111	18
157	1	16	30	7
157	5	21	-8	-5
158	3	19	-26	-10
157	2	18	4	-14
159	1	18	28	-9
158	6	20	19	-17
158	5	20	40	-17
157	3	17	42	-11
157	5	17	38	-4
157	4	14	-2	13
158	5	15	-26	6
158	3	18	4	-2
157	5	20	5	0
158	6	19	7	-6
158	3	16	-15	-3
158	5	17	-63	4
158	7	19	-42	9
157	5	19	0	7
158	7	17	-10	5
157	5	19	9	9
157	4	21	48	8
158	4	21	65	2
157	1	20	-10	2
158	4	23	-116	12
157	4	22	-34	0
157	1	17	7	-3
158	8	16	-22	6
158	7	18	9	2
158	4	18	-10	0
157	3	16	-7	2
158	2	16	13	3
158	1	16	29	-1
158	4	15	33	4
158	8	19	10	7
157	5	23	-2	11
157	4	22	9	9
157	4	19	25	-4
157	2	16	12	-2
158	1	15	16	-8
158	3	17	10	-10
159	4	15	5	-6
157	3	17	-4	-4
158	3	18	1	-4
157	3	15	7	2
159	8	19	-5	7
157	8	18	8	-2
158	7	16	12	-5
157	8	18	13	0
157	8	18	10	2
157	8	17	13	4
158	5	16	26	7
158	7	14	54	4
158	3	15	97	2
158	8	15	51	5
157	8	17	-49	12
158	8	22	-26	18
158	5	16	24	11
157	5	18	-15	10
157	5	18	-25	4
157	5	18	-31	-2
158	6	20	-20	-7
158	7	19	-2	-18
157	7	18	7	-13
158	8	16	23	-7
158	5	18	-4	-1
159	6	20	-11	-9
158	2	24	5	-6
157	-1	17	36	5
157	-1	14	23	-5
158	0	18	-36	3
158	5	15	-12	7
158	3	16	54	-3
158	3	16	48	-1
157	8	17	22	2
157	8	17	8	2
157	8	19	5	-3
158	8	22	7	-1
158	7	19	0	8
157	4	17	-11	7
157	3	14	-11	8
157	1	15	11	6
157	1	15	40	2
158	3	18	81	6
158	7	22	66	1
157	6	21	50	-4
157	4	21	37	4
157	10	22	16	10
158	14	22	19	7
157	8	18	2	5
158	3	16	-13	7
157	3	13	-77	7
158	2	17	-108	5
158	3	24	-40	3
157	8	24	17	7
158	11	22	6	6
158	11	19	-15	3
158	10	17	-16	2
158	14	21	-30	-6
158	10	17	-17	-6
158	4	17	5	3
158	5	17	13	4
157	3	15	43	1
158	1	15	78	2
158	3	15	72	4
158	3	14	35	3
158	3	19	16	3
158	2	18	6	-1
158	2	17	1	-8
157	3	23	4	-10
158	6	19	2	-15
157	3	18	23	-7
158	4	16	70	0
157	5	15	37	-3
157	7	21	-87	4
158	10	22	-74	8
157	7	14	35	0
158	5	17	19	-2
157	3	21	-12	0
159	3	19	-51	10
157	0	19	-25	7
158	-1	14	41	15
158	3	12	20	17
158	3	15	21	-1
158	5	17	4	-6
158	5	18	21	-13
157	10	17	12	-13
158	16	20	-18	-12
158	14	22	12	-13
158	10	22	14	-6
157	3	24	20	-1
157	3	22	9	3
157	1	21	1	12
157	3	21	-15	13
157	1	19	-19	14
158	1	15	21	13
157	5	16	19	0
158	2	19	-11	2
158	5	19	-15	4
158	4	19	10	0
158	5	19	10	4
157	5	18	1	0
157	7	17	-1	3
157	6	14	-30	8
158	5	11	-39	9
158	5	16	-30	4
157	0	19	-16	4
157	0	15	9	11
157	1	17	36	-2
158	1	16	42	-18
157	4	17	103	-16
157	8	18	164	-1
158	5	17	125	-7
158	4	14	96	-5
157	2	13	-15	-1
158	5	26	-115	1
157	8	23	-31	8
157	3	14	-10	7
158	4	22	20	12
157	4	22	48	9
157	5	18	13	2
158	5	17	33	2
157	5	19	-6	0
157	9	21	-18	3
158	5	21	-6	7
157	1	17	-20	9
158	4	20	-7	12
158	7	18	3	11
157	1	18	-19	6
157	3	18	-34	-9
157	7	16	-20	-15
158	4	19	-19	-12
158	4	23	-8	-6
157	10	21	-9	0
158	15	20	-8	0
158	9	19	0	-3
157	5	20	10	-6
157	6	18	20	-2
158	2	19	15	4
158	8	19	28	4
157	7	16	24	6
159	4	15	13	8
158	9	19	22	8
157	5	22	33	6
157	4	17	27	8
157	5	14	-20	3
158	5	17	-51	-3
158	5	19	-30	-1
157	7	20	-28	0
158	6	23	-27	6
157	5	24	-2	4
158	4	21	-1	0
158	5	20	8	0
157	5	15	23	-6
158	4	14	36	-6
158	3	17	37	-6
157	1	12	41	6
157	5	13	73	5
157	3	14	121	-2
158	5	13	141	-6
157	4	13	30	-10
158	5	19	-120	5
157	5	20	-57	2
158	0	14	26	0
158	2	19	-32	4
157	3	21	-26	-8
158	4	17	-37	-11
157	9	24	-29	-9
157	10	22	-4	2
157	9	19	-2	7
157	5	17	12	6
157	7	16	9	11
158	4	15	22	8
157	7	17	5	6
158	7	21	-4	0
158	5	17	-2	7
158	4	17	12	2
158	5	19	21	-3
158	7	19	17	3
157	10	21	21	4
157	5	20	35	4
158	4	16	37	4
158	3	19	-20	7
158	3	24	-68	13
158	6	21	-5	9
158	1	17	45	5
158	0	18	19	-1
157	5	17	57	-13
157	4	17	47	-2
159	3	17	10	2
158	3	17	8	4
158	7	16	-1	7
157	7	15	4	6
158	7	18	-3	0
157	7	21	-13	-7
158	4	18	-24	-6
158	4	18	-9	-9
158	4	17	16	-7
157	4	13	10	3
157	5	15	18	6
158	4	17	22	-1
157	2	17	11	9
158	1	17	15	13
157	6	19	28	15
158	5	20	50	14
158	0	14	79	15
157	4	9	72	6
157	2	11	-32	-12
158	5	23	-98	-7
157	8	17	-15	-2
157	3	14	15	-8
157	3	17	5	3
157	8	13	21	-1
157	7	20	-5	-8
157	7	21	-26	-3
158	7	19	-42	-5
157	4	22	-24	-9
157	1	19	-10	-12
158	11	27	0	-8
157	16	24	31	-5
157	10	20	35	0
157	5	22	12	4
157	9	26	-33	6
158	9	25	-10	6
158	3	17	22	9
157	4	18	3	7
158	5	17	8	-4
157	8	19	12	-9
157	7	17	-3	-2
158	5	15	2	-4
158	5	17	10	-2
158	1	16	8	6
158	3	17	23	4
158	3	17	51	4
157	3	19	80	3
157	0	17	71	4
158	-3	15	40	3
157	2	14	-51	8
158	4	19	-134	6
158	5	16	-24	-1
158	2	13	10	6
158	5	17	-18	4
158	7	15	-3	-1
158	6	18	-33	0
157	5	21	13	4
159	5	15	5	3
158	6	17	41	6
157	5	19	96	5
157	3	19	73	-2
158	2	18	46	2
157	6	20	3	3
157	2	21	15	7
158	2	19	16	7
158	3	17	0	3
157	4	17	2	0
158	2	15	0	-1
158	2	19	7	-3
158	8	24	9	-4
157	8	23	8	-3
158	6	18	18	-3
157	4	17	5	2
157	3	16	-18	2
158	5	14	-37	7
158	8	19	-15	12
157	10	17	5	11
158	5	14	-9	3
157	4	16	5	-8
158	8	17	5	-7
158	11	19	16	-1
158	8	21	26	6
158	3	24	18	1
158	-3	26	24	-1
158	0	24	33	-2
158	4	22	8	2
157	7	27	-36	9
158	12	25	3	-2
157	13	18	-1	-10
158	8	17	-49	4
157	10	16	-14	1
158	7	15	1	2
157	4	16	5	10
157	3	14	35	0
157	1	17	45	-8
157	5	18	35	-1
158	3	18	19	9
157	1	18	-34	9
157	4	18	-36	3
157	1	15	-1	-12
158	-1	15	0	-11
157	2	15	30	-6
158	4	17	53	-1
158	3	14	71	-1
158	2	15	0	3
158	6	23	-64	11
157	7	21	6	2
158	6	21	12	-4
158	6	24	8	-2
158	11	18	26	1
158	10	16	2	3
158	3	18	-5	5
158	5	18	-5	11
158	7	17	14	13
157	10	19	7	12
157	7	18	16	21
158	1	15	13	15
158	3	17	-9	0
158	2	22	-2	-5
158	5	22	-10	-12
158	4	13	-9	-10
158	4	15	-8	-11
158	4	21	-5	-7
157	2	15	14	-3
158	2	12	8	6
158	1	15	-13	7
158	7	15	15	11
158	9	20	30	12
158	7	19	33	7
159	6	19	55	4
157	5	21	61	-2
157	3	19	42	-4
158	6	21	18	-3
157	8	22	16	-1
158	7	18	4	6
158	3	14	-7	0
158	3	16	-26	-3
158	7	17	-8	4
158	8	19	48	8
157	5	15	65	6
158	5	15	68	-3
158	3	18	-62	-4
158	5	19	-151	-4
158	5	19	-8	-10
157	2	15	33	-4
158	5	22	26	-2
158	7	19	29	1
157	8	23	-48	8
158	5	23	0	-1
157	6	26	0	-2
157	4	24	-13	-3
158	3	17	15	-3
158	5	18	-7	-2
157	4	18	11	-3
156	5	17	-1	2
157	8	18	-12	7
157	10	19	-15	14
157	8	14	33	16
158	4	15	42	16
159	7	19	23	12
158	2	19	36	0
157	4	22	28	-4
157	4	15	21	-5
158	3	14	-40	-3
158	3	13	-26	-6
157	4	14	9	-6
157	1	18	1	2
158	3	17	25	1
158	5	18	26	0
158	6	22	15	7
158	6	20	28	9
158	4	21	35	13
157	2	19	51	9
157	5	17	35	1
158	7	19	-8	-1
158	8	19	-50	-4
157	7	21	-57	-5
158	3	14	-51	7
158	1	13	-27	3
158	0	18	53	-5
157	1	15	65	1
158	3	15	-6	4
157	3	14	-14	-2
158	4	17	26	-13
157	5	20	30	-2
158	12	23	39	-2
158	8	26	54	-1
157	8	22	34	5
158	8	21	3	7
158	5	18	-20	7
158	7	16	-25	3
157	5	21	-27	1
157	12	21	-20	2
157	10	17	-9	-7
158	4	17	18	-8
157	3	17	26	-2
158	10	21	5	4
158	14	25	5	10
157	3	21	35	12
158	3	16	18	23
157	1	13	-22	25
158	1	14	-7	9
158	4	19	-7	-10
158	1	18	11	-19
158	1	17	24	-13
157	7	19	1	-11
157	14	18	17	-7
158	10	19	5	-14
158	6	22	-6	-6
157	3	24	5	-2
157	1	23	10	-1
157	1	17	12	11
157	1	16	1	8
158	7	22	-7	2
157	3	19	-7	-3
157	3	21	12	-6
158	3	19	40	-3
158	1	15	11	-4
157	3	22	-90	2
158	8	23	-82	11
157	8	13	54	13
158	3	12	66	6
157	1	15	67	7
157	5	17	54	18
157	10	19	0	12
158	10	12	4	2
158	3	13	-11	8
157	4	16	0	0
158	1	16	24	-4
157	1	19	32	-8
158	5	20	24	-9
158	6	22	13	-3
157	4	24	0	1
158	6	23	-24	6
157	4	21	0	7
158	5	23	13	2
157	7	22	-1	2
157	5	17	-11	4
157	7	17	-6	2
157	5	11	16	3
158	1	14	19	3
158	5	18	32	-4
157	5	15	33	-6
158	5	14	13	4
157	4	14	10	2
157	5	22	19	0
158	4	22	31	2
157	4	18	35	0
158	5	18	-12	9
157	5	23	-70	-5
158	4	23	-40	-10
158	3	14	-4	0
157	2	19	1	2
159	0	17	5	4
158	2	19	-9	3
158	10	22	-6	6
158	12	19	-3	9
157	8	18	28	6
158	3	15	95	7
157	0	15	130	0
157	2	17	19	-2
157	4	26	-86	-12
158	4	22	-27	-19
158	4	19	-25	-8
157	6	22	-11	-1
158	5	20	33	7
157	11	23	14	7
158	18	20	24	6
157	11	17	10	5
158	6	17	-12	-1
157	8	14	-28	1
158	3	18	-29	3
158	4	17	4	3
157	5	17	5	-1
158	3	15	-1	3
157	5	15	15	6
157	3	17	12	6
157	4	18	8	9
157	0	17	13	5
158	1	19	-8	6
158	5	18	-15	5
158	4	18	-11	5
157	7	17	-7	4
157	4	14	12	2
158	4	20	26	2
158	5	23	36	0
157	4	17	35	-2
157	5	12	20	-6
158	3	13	12	-8
158	3	16	25	-7
158	4	17	12	-7
158	5	17	-3	-4
158	4	17	14	-5
158	8	20	10	-1
157	5	17	10	0
157	4	18	20	-1
158	3	21	21	-3
158	1	19	8	-6
158	4	22	-20	-1
157	8	18	-6	11
158	4	14	8	18
158	5	13	27	11
157	5	15	88	11
157	0	15	81	2
158	1	18	-33	3
157	5	22	-84	6
158	5	19	11	-1
157	6	17	21	-1
158	3	15	-13	-4
157	2	11	-8	4
158	3	10	-23	9
157	2	14	8	4
158	5	15	0	-1
157	5	17	-2	-3
157	5	25	4	-2
158	7	22	8	-6
158	8	25	-7	-10
157	5	25	-13	-6
159	5	23	21	1
158	5	23	13	2
157	8	24	21	4
158	7	23	19	-2
157	9	15	28	-3
158	12	18	33	-2
157	10	17	18	2
157	7	18	-2	8
158	4	19	-12	-1
157	1	18	-1	3
158	1	23	-7	9
158	4	24	11	7
158	8	20	2	13
157	3	19	-16	11
158	4	18	2	-4
158	4	17	7	-9
158	3	16	52	2
158	4	15	65	0
158	7	15	-29	2
158	9	20	-84	8
158	7	16	-27	8
158	1	11	5	9
157	4	15	-2	2
157	2	17	42	2
158	5	18	62	4
158	9	18	35	5
157	13	20	18	3
157	5	22	31	1
157	7	22	32	0
157	4	19	13	-2
157	0	18	-16	4
157	3	18	-14	0
157	0	17	9	-8
158	5	17	-8	-6
157	8	14	1	0
157	8	17	21	-1
158	12	20	27	-9
158	16	16	31	3
157	18	18	33	7
158	10	20	15	1
157	3	19	-30	-1
157	1	17	-45	-7
157	2	19	-41	6
157	5	19	-3	8
157	2	17	38	8
158	2	16	22	4
158	0	14	-5	0
157	0	18	-22	9
158	2	19	-5	7
158	4	19	16	6
158	4	23	16	7
157	5	21	18	-6
158	2	20	3	-22
157	3	17	0	-13
158	4	18	6	-5
157	4	18	40	-4
158	4	13	83	3
157	2	13	15	-5
158	3	19	-107	2
157	2	22	-83	4
158	2	13	-6	0
158	2	14	-28	6
158	4	15	5	-1
157	3	17	17	-3
157	4	22	47	0
157	4	19	101	5
158	1	20	69	2
157	6	21	46	1
157	6	18	31	6
158	9	23	13	6
157	8	21	-2	9
157	5	15	0	9
157	4	14	0	-1
158	6	15	8	-2
157	8	14	1	-6
157	2	15	-2	-2
158	2	13	20	6
158	3	17	17	-1
157	4	22	-2	1
157	8	23	-17	4
157	5	24	1	6
158	5	19	9	-2
158	5	20	7	-3
157	3	19	-4	6
158	3	14	-20	8
157	4	21	-37	9
158	8	24	-33	4
158	10	17	-1	3
157	8	15	-5	6
158	9	19	10	11
157	10	17	29	10
158	4	15	16	0
158	4	17	29	-2
158	7	18	47	-5
158	6	21	-1	-7
157	4	21	5	-8
158	3	21	36	-5
157	3	19	-4	-5
157	2	17	-12	-5
157	5	16	-10	-2
158	3	21	45	-11
157	5	22	48	-12
159	8	24	15	-6
157	5	23	31	2
158	6	17	1	2
157	15	22	-11	2
158	11	15	-6	5
158	1	15	-10	-4
157	1	21	4	6
158	1	15	15	13
158	4	19	20	12
158	8	18	40	12
157	3	15	74	11
158	3	16	44	16
158	3	19	-57	14
158	8	23	-91	13
158	8	16	-9	12
158	5	17	8	6
158	7	15	-23	-6
158	3	18	-74	2
158	2	22	-63	8
157	-3	11	15	-4
158	2	15	-12	-9
157	8	19	24	-9
158	4	18	33	0
157	5	19	22	-4
158	1	14	38	1
157	3	17	15	0
157	3	17	25	0
157	0	16	6	7
157	3	18	5	0
157	3	17	9	6
157	5	19	9	4
158	7	21	26	4
157	6	19	64	2
158	5	18	89	-5
157	5	19	25	-5
158	4	19	-62	4
157	10	24	-15	-2
158	7	19	48	-9
158	6	21	-9	-1
158	4	21	-3	-4
158	6	18	-15	0
158	9	19	-25	5
157	4	21	12	7
157	4	24	19	7
157	4	21	5	6
157	3	16	-9	-5
158	5	15	1	-6
157	7	19	-4	2
157	9	18	13	1
157	8	17	29	0
157	7	16	29	-1
158	5	17	20	3
157	4	19	23	3
157	3	18	34	4
157	0	11	23	2
157	-2	6	16	0
158	1	15	-14	2
158	4	17	-21	-5
157	4	17	11	-2
157	9	22	17	-5
157	10	17	9	0
158	13	17	-5	11
157	13	18	-6	2
158	8	22	-20	0
158	4	26	-44	0
157	5	20	-22	-3
158	6	21	41	-4
157	5	16	63	-1
158	3	14	26	-4
158	4	17	5	-4
158	7	16	-10	-1
158	7	16	-3	-4
157	8	16	-20	-1
158	4	13	2	0
158	1	14	30	1
158	3	14	14	2
157	0	14	19	9
157	3	18	13	14
158	3	21	23	4
158	-1	21	10	6
157	8	25	20	4
157	11	25	21	0
157	8	20	0	0
157	6	19	-3	1
157	9	17	-7	-4
158	6	18	-4	-1
157	5	16	-19	7
158	5	18	-35	1
157	1	20	-30	3
158	5	24	-7	3
158	7	19	1	-2
158	4	16	19	-4
157	3	17	26	3
157	2	15	18	2
158	3	17	17	-1
157	2	19	12	5
157	4	13	12	3
158	5	15	22	0
157	5	17	26	1
158	4	17	14	-1
157	5	17	16	1
157	3	15	9	0
158	4	18	19	0
157	8	19	45	4
158	5	18	42	8
158	5	21	26	6
158	5	21	6	5
157	4	19	2	2
157	5	18	-5	-2
158	1	19	-4	2
158	1	19	19	6
158	2	17	51	3
158	2	12	72	-3
158	3	16	8	-2
158	6	23	-97	-2
158	10	23	-108	2
157	7	21	-23	-5
158	6	18	4	-4
157	3	17	-17	-3
158	3	20	-41	2
158	7	18	-70	6
158	8	17	-37	-2
157	8	21	-17	2
158	7	18	10	8
157	4	17	41	12
158	8	22	80	7
158	5	17	151	0
157	7	23	124	0
158	5	24	53	-2
157	6	24	52	-4
157	3	19	1	4
158	3	15	-129	13
158	7	20	-105	8
158	4	19	1	6
157	5	20	2	7
157	4	15	36	0
157	5	13	72	-7
158	5	18	41	-10
158	6	21	48	-19
158	8	19	77	-9
158	8	18	38	2
158	6	24	-3	0
157	12	20	1	1
158	8	19	-24	2
157	2	16	-19	8
158	1	15	-17	9
157	0	14	-26	7
158	0	14	-20	0
158	2	18	-12	-12
158	5	22	6	-7
157	3	19	-4	0
158	4	18	4	-1
158	5	19	-9	7
157	6	16	-39	7
157	7	21	-13	3
158	4	21	18	2
157	7	19	19	3
157	3	15	26	14
157	0	8	25	14
157	0	13	21	11
157	1	13	29	10
158	-1	12	-5	9
158	-4	10	-28	2
158	0	15	-13	-4
157	3	19	6	-3
158	6	22	-10	0
158	8	24	-19	-4
157	21	17	-2	-13
157	23	20	-12	-18
158	13	26	1	-13
157	7	24	51	-2
157	1	20	44	-2
158	3	25	-14	-6
158	3	22	-15	0
157	3	20	27	-1
158	5	21	36	-2
157	3	17	1	1
158	3	21	-17	6
157	2	18	1	2
157	5	17	21	-8
158	3	16	17	-2
157	4	15	-2	6
157	5	16	4	9
158	8	16	41	9
158	8	13	43	13
157	5	16	25	21
158	5	17	19	24
157	6	15	-5	13
158	5	17	12	1
158	3	15	53	-7
157	2	11	29	-11
159	3	22	-73	0
158	7	26	-85	3
157	5	15	8	1
157	1	14	23	4
158	0	17	72	1
157	0	16	152	1
158	1	14	100	2
157	7	18	-87	4
157	10	30	-140	-2
158	5	22	10	-9
158	3	19	-2	3
158	7	23	-8	0
158	6	17	6	-4
157	5	17	-23	1
158	5	16	9	-1
158	3	14	-15	-3
158	1	18	19	-5
157	3	21	26	-2
158	4	17	6	6
158	3	17	28	13
157	4	17	40	5
157	5	18	34	-5
158	7	23	4	0
157	8	20	18	3
157	7	18	30	5
157	9	20	26	7
158	9	20	10	0
157	6	19	-16	-3
157	4	18	-38	3
157	2	16	-24	2
158	3	18	-3	0
157	6	20	-5	3
158	7	19	10	-1
157	7	19	11	-4
157	5	18	13	-2
157	8	17	10	-2
158	8	20	1	4
157	5	13	6	7
158	4	13	-3	-4
157	5	18	-7	-7
157	4	18	-11	-3
158	0	21	1	3
158	5	19	24	7
157	6	16	41	9
157	7	16	43	10
157	5	15	22	11
157	4	12	-15	-1
158	1	14	-34	-10
158	2	19	1	-10
158	4	14	37	-6
158	3	21	12	-6
158	8	20	-9	-5
157	8	19	-10	-1
158	5	22	-33	7
157	8	21	5	6
157	14	23	33	3
157	12	19	8	2
157	8	17	15	0
158	7	19	35	6
158	4	17	60	8
158	4	15	25	11
158	4	18	-22	9
158	8	21	-54	12
157	10	18	-64	16
158	4	15	-58	9
158	4	13	-31	3
158	0	14	-10	-1
158	-1	15	-7	-2
157	-1	18	2	-3
157	0	18	38	0
158	1	17	115	0
157	3	21	159	-9
158	1	23	129	-9
158	1	13	80	-5
158	4	12	19	-4
158	5	17	-41	-1
157	8	17	-15	-7
158	6	19	-18	-12
158	9	24	-23	-4
158	7	16	13	2
158	1	17	44	4
158	3	16	50	9
158	4	14	-62	12
158	7	25	-97	17
158	4	20	-32	8
157	4	17	-27	1
158	7	20	8	6
157	4	20	8	-1
157	6	21	-12	-2
158	5	20	38	-6
158	5	22	20	3
157	4	23	2	10
158	7	19	28	2
157	10	22	82	0
157	10	22	104	4
157	5	16	9	13
157	5	15	-102	16
158	7	16	-49	0
158	5	15	18	-7
158	8	19	-16	-11
158	4	20	-11	-9
157	4	18	-36	1
158	3	17	-9	-1
158	0	15	1	2
158	4	15	12	2
158	3	17	29	2
157	5	22	5	1
157	5	21	23	2
157	6	21	12	2
157	5	19	29	-1
158	5	16	36	-1
159	5	18	13	-5
158	5	17	-27	-3
158	8	19	-31	-2
158	4	19	0	4
158	6	17	-2	4
158	0	15	-7	2
157	7	18	-44	2
158	7	21	-16	-11
157	4	21	31	-13
157	7	26	15	-10
157	4	24	21	-1
157	4	23	32	9
158	-1	15	41	12
157	4	15	43	13
158	5	17	47	9
157	5	18	42	3
158	6	18	10	1
158	5	19	-13	-4
157	6	19	-26	-5
157	4	19	-19	6
159	7	20	-4	9
157	4	17	8	11
158	1	17	9	15
157	3	16	16	2
157	5	17	29	-6
157	5	19	21	-8
157	8	14	6	-5
157	6	15	4	-5
157	3	15	8	3
158	2	13	-7	10
157	4	21	-31	6
157	5	19	-19	8
157	5	19	17	0
157	7	25	24	-1
158	5	19	26	4
157	5	12	29	-4
158	1	14	13	-17
157	5	19	5	-13
158	12	20	-1	0
159	15	15	-16	4
158	9	15	-34	6
158	11	18	-8	4
157	10	17	32	1
157	4	19	27	-3
158	8	21	45	-5
158	7	21	56	-2
158	7	22	33	0
158	6	16	16	3
158	3	14	21	6
158	5	13	75	3
157	5	12	-23	2
157	8	18	-170	7
157	5	25	-75	2
157	1	17	17	-5
158	-1	19	21	6
159	0	18	88	14
158	5	15	65	9
157	5	21	-47	7
158	1	21	-89	8
158	0	16	23	3
157	-1	17	48	3
158	0	18	-3	-2
157	4	13	19	-12
158	3	19	0	-5
157	4	18	34	-2
158	11	18	36	2
157	14	23	50	11
157	11	19	78	0
158	8	22	22	-7
158	6	22	-30	2
157	5	21	-53	2
158	5	20	-15	-2
158	7	19	13	-3
158	6	22	5	0
158	5	19	21	6
157	3	18	24	9
157	4	18	16	5
158	3	17	20	8
158	3	18	8	10
158	4	17	-4	1
158	7	20	-6	0
158	7	15	-11	1
157	5	17	-11	7
158	4	22	-13	8
158	3	18	-29	-2
158	5	19	-24	-9
158	2	19	0	-8
157	2	22	19	-4
158	2	19	21	0
158	3	19	28	1
158	5	18	40	4
157	3	17	16	11
158	7	16	9	6
157	3	16	12	6
158	2	15	-4	2
157	4	16	16	-6
157	1	19	35	-6
157	1	17	26	2
159	5	17	1	12
157	8	18	-19	14
157	5	15	-1	2
157	1	17	-10	-11
157	7	19	-42	-12
158	13	17	-38	-15
158	10	15	5	-15
158	4	15	15	-1
158	5	15	13	3
158	9	19	5	9
158	5	18	7	7
158	0	16	32	5
158	3	19	19	9
157	3	17	18	0
158	3	22	2	9
157	5	23	-6	3
158	7	21	-3	3
157	4	18	0	7
157	3	18	39	-1
158	10	19	29	-4
157	11	16	6	0
158	5	17	10	7
158	3	13	36	11
157	4	13	102	4
157	1	14	73	-11
158	1	17	-57	-1
157	8	25	-98	7
158	8	21	3	0
157	3	17	14	-1
158	4	19	-1	-7
157	4	15	17	-8
157	4	21	-3	-3
158	5	19	44	-4
157	4	19	71	-2
157	7	18	87	1
158	5	17	28	12
157	8	22	-96	20
157	8	24	-136	4
157	6	27	-69	3
158	6	21	-7	2
157	5	17	-33	4
158	5	15	-2	8
158	7	15	25	-1
157	4	19	60	0
157	4	17	92	1
157	4	19	39	3
157	2	21	20	2
157	5	19	29	-5
158	3	20	23	-4
158	2	18	29	0
157	3	13	23	0
158	2	15	11	6
158	3	14	7	6
157	4	15	-1	3
158	5	17	0	-4
157	5	14	-8	-1
157	3	15	1	6
158	10	17	25	-10
158	16	19	15	-9
157	11	19	11	-6
158	4	21	-7	-2
158	0	24	-19	-5
158	3	24	-17	-13
157	7	19	-26	-13
158	4	17	2	-2
158	3	19	24	10
158	4	18	34	4
157	5	19	15	9
157	7	18	-18	7
158	8	19	-2	-2
158	9	23	16	2
157	7	23	1	6
157	3	19	-11	0
158	4	19	-15	8
157	8	17	-1	13
158	6	18	9	3
157	3	21	8	-1
157	-1	14	4	1
158	0	14	8	2
157	2	15	6	8
157	1	14	3	4
158	2	19	28	6
158	5	23	46	15
157	5	17	65	12
158	5	17	66	8
158	5	18	19	1
158	15	21	-17	-11
158	15	22	-19	-15
158	5	14	-68	3
157	4	16	-89	5
157	8	24	-45	4
158	5	21	-34	2
157	4	18	-11	-8
158	6	17	29	-3
158	3	14	35	-8
158	3	17	28	-6
157	4	17	18	9
157	2	18	6	12
158	2	17	7	17
158	4	13	-1	11
158	5	14	-19	4
157	9	14	1	-8
158	14	20	34	-18
157	8	22	58	-2
157	1	19	126	-1
157	3	21	125	-1
158	1	18	-19	7
158	1	20	-75	2
157	7	16	10	-10
157	5	15	12	-8
157	7	18	-8	-2
158	5	20	17	-12
158	3	24	48	-7
157	3	17	105	-6
158	2	14	15	3
157	6	17	-141	15
158	4	18	-71	6
158	5	18	26	0
157	8	19	-10	2
157	7	19	17	2
157	3	14	4	8
159	7	14	-8	6
158	5	15	6	7
157	4	18	1	7
158	5	17	21	10
158	8	16	6	7
158	6	16	8	2
157	5	17	1	8
158	5	17	8	9
157	3	17	3	4
157	3	19	-10	6
158	5	23	-11	7
157	4	19	16	5
158	4	9	50	8
157	4	9	60	0
157	4	14	56	-19
157	5	17	6	-12
157	5	19	6	-7
157	3	23	-17	2
158	6	24	-24	-2
158	5	22	-1	-10
158	5	19	-24	-9
157	5	19	-14	-5
157	8	22	-17	-1
158	11	22	-4	-2
158	8	22	-2	1
158	8	18	5	-2
157	4	15	25	7
158	1	18	11	6
158	1	21	-24	9
157	5	21	-10	13
158	5	21	41	8
158	7	17	27	8
159	5	19	35	-1
158	7	22	20	-4
158	7	18	-2	4
157	5	16	19	4
158	5	15	-8	7
157	7	18	-20	11
158	4	21	-8	13
158	4	19	28	7
158	3	15	49	6
158	4	15	41	3
157	2	12	15	18
157	1	11	-13	11
157	2	18	9	-7
157	2	19	25	2
157	6	21	18	-7
158	7	22	11	-14
158	8	22	8	-13
157	8	23	3	-19
158	13	21	-13	-4
158	7	19	-12	-1
158	2	16	-15	-1
157	4	17	-17	0
158	1	16	-28	-3
158	3	18	-44	-3
158	5	22	-15	0
158	4	22	41	6
157	5	18	60	1
157	3	22	24	3
158	1	22	16	4
157	3	19	18	-1
157	1	18	27	5
158	3	21	57	7
158	3	17	96	2
158	0	13	87	0
158	4	19	-65	12
157	9	26	-137	17
157	7	24	0	6
157	1	19	22	9
158	3	21	13	9
158	3	18	35	7
157	4	17	-7	7
158	6	17	0	-3
157	7	16	-14	-3
157	7	15	-15	-7
157	5	15	-35	-1
158	7	16	-21	1
157	10	17	44	-1
158	10	14	52	-5
158	9	15	-44	2
158	12	20	-82	4
157	9	17	54	-3
158	3	13	60	3
157	3	17	44	-3
158	-1	17	25	-5
157	3	15	-47	-8
158	1	11	-9	-22
157	-6	17	3	-13
158	1	17	8	-5
159	3	17	-1	-6
158	4	18	-8	9
157	6	17	6	13
157	15	21	6	15
158	19	17	12	13
158	13	19	10	6
157	11	20	10	3
157	7	18	2	2
157	2	19	8	0
158	-1	17	10	-2
157	-5	15	28	2
158	4	19	34	-1
157	12	22	35	2
157	7	21	52	-2
157	-4	23	37	-4
157	1	17	-1	4
157	3	20	-20	9
158	-1	19	4	6
157	1	15	-9	1
157	2	17	-18	-2
157	1	15	-1	-4
158	-1	14	23	6
158	2	20	18	4
158	-5	19	-1	3
157	-20	18	18	6
157	-20	22	3	4
157	-2	22	6	1
157	7	24	8	4
157	12	19	8	11
158	-6	14	20	18
158	-13	14	13	16
157	16	17	4	0
158	24	20	5	-2
158	27	22	26	-1
158	35	23	-5	-8
158	45	21	-22	-3
158	47	14	-18	6
158	16	11	-26	-6
158	19	15	-16	-6
158	35	17	-3	7
157	52	17	2	0
157	37	17	-8	1
158	20	19	-3	-3
158	65	22	19	-8
157	9	24	26	0
158	-31	21	21	3
157	-56	19	15	2
158	-127	19	29	-6
158	-73	17	53	-8
157	-36	22	69	-6
158	20	16	63	0
158	93	17	24	4
158	55	24	30	6
157	12	18	34	2
157	2	22	-144	7
157	-15	29	-152	0
158	-34	14	21	-7
158	-23	5	-5	10
158	0	9	35	1
158	10	12	19	-7
157	-1	19	-24	-1
157	-8	18	11	9
157	-17	19	6	6
157	-13	19	30	0
157	17	19	14	0
157	65	14	25	-3
157	68	14	15	-2
158	22	15	5	-10
158	-4	15	9	-15
157	-11	19	21	-11
158	-23	21	36	-3
157	-53	24	34	0
158	-9	23	52	-3
158	23	22	15	3
157	-11	24	-7	7
159	21	24	7	10
157	14	21	1	7
158	-20	21	-18	3
158	-47	18	-1	15
157	-49	15	17	21
157	5	15	-9	23
157	77	14	-30	18
158	49	17	-7	2
158	-20	18	30	-4
157	21	19	26	-1
158	-1	15	0	3
158	-51	15	-3	4
157	-46	11	14	6
157	32	15	-2	2
158	123	22	2	0
157	92	22	6	-12
157	68	24	15	-13
157	42	25	22	-8
158	1	24	-11	-12
157	-21	22	-19	-2
158	-29	23	1	0
158	-21	19	53	8
158	-24	13	45	12
157	-23	10	-8	2
158	-34	17	5	-2
157	-30	22	22	-6
158	-23	18	43	-6
158	-20	16	73	-6
157	-8	6	64	1
158	4	7	-12	1
157	25	15	-104	5
157	32	19	-26	11
157	25	15	41	6
158	32	9	37	2
157	29	4	74	-2
157	7	5	-41	6
158	-1	16	-132	9
158	22	22	-43	-1
158	10	17	14	2
157	11	19	9	-4
158	43	19	28	-4
158	34	22	19	-2
158	27	23	12	-5
158	9	13	4	-3
158	-8	9	-4	-6
157	-20	14	11	-2
158	-13	28	-12	0
157	1	30	-13	3
159	-2	26	-3	8
158	14	26	3	12
157	6	27	17	12
158	-7	33	21	10
157	-22	43	29	7
158	-39	34	28	3
158	-26	30	13	10
157	-15	32	-12	10
157	0	19	-1	3
158	35	14	-5	-1
158	85	10	-8	-1
157	89	9	24	-6
158	79	15	30	-3
158	60	17	50	-6
158	-54	18	26	-6
157	-190	12	8	7
158	-231	10	6	2
158	-78	13	-7	0
159	32	14	13	8
157	91	16	12	1
158	165	11	23	2
157	72	3	9	-6
157	64	3	1	0
158	69	5	-9	7
158	-1	9	-33	-4
157	-94	13	1	1
157	-129	17	11	-5
158	-24	22	-10	0
158	2	16	-5	-4
158	23	30	10	-14
157	39	47	17	-14
158	33	42	20	-7
158	5	33	39	-2
157	-1	26	69	0
157	41	16	52	4
158	27	13	-69	8
158	14	11	-83	8
158	-9	15	37	6
158	26	19	18	6
158	41	17	8	2
157	41	18	17	6
158	28	13	-5	1
158	-87	12	24	4
158	-89	13	28	3
157	-13	12	40	4
157	6	17	17	4
157	12	19	-13	2
158	56	19	37	-2
157	82	21	42	-1
157	93	24	-60	18
158	96	22	-15	20
158	83	11	41	14
159	29	10	-34	10
158	-21	9	-29	8
158	-20	5	-11	-1
158	-58	2	-23	-7
157	-40	7	-34	-1
157	-15	8	-11	2
158	31	8	6	7
157	74	18	15	3
158	27	17	19	4
158	-1	18	0	4
158	-33	17	-2	4
158	-68	2	5	0
157	-127	7	36	-4
157	-92	43	40	0
158	17	49	35	-7
157	14	24	26	-7
157	10	7	13	1
157	1	8	6	-3
157	-54	23	13	-9
158	-63	30	5	-8
158	-37	50	-3	-2
157	-30	54	7	4
158	3	50	2	3
157	35	46	10	-4
157	36	29	24	-8
158	89	31	38	-8
157	94	33	29	-9
158	56	22	20	-5
157	32	15	62	3
158	9	11	93	15
157	19	8	-13	26
157	9	6	-101	21
158	7	0	-18	-17
157	-3	-2	-9	-27
157	-15	5	-37	-19
157	-10	13	-7	-15
157	-8	14	1	3
157	2	15	45	0
158	0	9	20	4
157	15	3	-9	8
158	28	3	6	7
158	21	6	3	4
157	28	4	10	4
157	33	4	7	5
157	-13	6	37	4
158	-53	9	95	9
157	-50	15	84	2
158	-22	27	-48	9
157	1	37	-87	10
157	1	35	-22	10
157	6	33	-40	19
157	7	33	-19	14
157	2	28	12	10
157	14	23	16	3
157	19	18	23	-1
158	15	17	12	1
157	8	18	30	-8
158	11	24	22	-4
158	14	22	24	1
158	35	11	14	2
157	20	4	-36	4
157	-10	1	-48	4
157	14	8	-17	10
158	-3	14	21	2
158	-28	7	24	-2
158	-4	11	6	2
158	90	13	8	-6
157	123	15	17	-16
159	46	24	39	-6
157	-3	24	52	-1
158	-22	34	28	3
158	-24	50	-7	5
157	-38	49	-23	2
157	-30	22	-10	0
158	-20	14	-18	-15
157	-6	37	-9	-9
157	0	35	10	1
157	-3	17	20	0
157	-2	10	37	6
158	-12	6	60	9
158	-14	15	78	1
158	-14	13	22	-1
158	4	14	-106	8
157	-65	18	-108	7
157	-140	7	10	-1
157	-74	10	8	-9
157	-12	7	6	3
158	44	8	17	0
158	88	12	-11	-3
157	136	11	9	5
157	218	13	5	2
157	188	10	41	6
158	181	8	51	0
157	84	15	-4	4
158	-30	17	-21	7
158	-6	19	48	0
157	-73	19	62	-2
157	-134	19	35	-4
157	-154	18	25	-3
158	-89	30	-2	1
158	-12	39	11	4
158	-40	31	11	2
158	-63	22	51	6
157	-82	21	87	3
157	-55	17	12	3
158	-20	17	-104	10
158	33	15	-78	2
158	85	10	-3	-1
158	69	14	-16	-7
158	77	19	-6	-5
158	90	17	-16	-1
157	27	18	-2	-7
157	-38	19	-6	10
158	-82	11	4	12
157	-60	3	28	4
157	-8	11	10	1
158	25	17	3	-1
158	72	24	-12	-2
158	64	21	-4	-7
158	53	11	3	-6
158	67	21	15	-7
157	53	30	22	-1
157	20	28	23	3
158	-13	30	25	0
157	-24	23	27	2
158	-14	17	35	5
158	-11	20	22	6
158	-12	27	24	6
158	-8	28	48	8
157	-8	23	56	6
158	-1	26	-40	12
158	-7	30	-97	7
158	-11	23	30	-8
157	-36	12	53	-4
157	-90	11	10	-1
158	-124	9	30	2
158	-42	11	-20	-2
157	84	19	-22	1
157	106	9	-2	14
158	125	1	8	8
158	139	-6	6	8
157	96	-5	3	2
157	35	-3	10	1
158	3	-7	2	-6
157	-1	-6	0	-4
157	-62	0	-9	2
158	-54	28	10	-5
158	-11	68	14	-3
157	-30	74	17	-8
158	-33	58	5	-2
158	-16	57	6	-1
158	-15	45	55	0
157	-11	38	84	9
158	-5	38	62	21
158	21	31	-17	27
158	73	-2	-7	13
158	33	3	8	-9
158	-40	16	-94	-16
158	-38	12	-93	-4
157	-64	12	-15	-5
158	-75	1	-18	-9
157	-64	6	-11	-5
158	17	2	8	-2
157	120	11	5	2
158	61	13	24	13
157	28	14	29	12
158	39	10	31	-4
158	41	9	5	-6
157	5	14	1	-7
158	-16	9	27	-5
157	-13	16	4	-5
157	-15	9	-7	-5
158	3	1	9	3
157	-19	17	43	0
157	9	18	38	9
158	7	-2	26	9
157	-5	-8	29	9
159	23	1	2	13
157	13	16	-4	10
158	4	26	1	8
158	3	36	35	-3
157	5	28	62	-1
157	-3	34	-12	-6
157	7	50	-110	-9
157	21	48	-46	3
157	29	35	51	1
157	35	17	20	1
157	31	16	33	2
157	-39	20	13	3
157	-131	22	-4	-2
158	-123	20	19	-4
158	-78	24	-1	0
157	-19	26	10	2
157	46	22	2	7
158	114	9	11	4
158	234	-1	23	9
157	213	-1	21	10
158	67	0	17	-2
157	-3	11	11	-4
157	-39	10	19	1
158	-72	9	9	-3
158	-84	12	6	6
157	-5	19	-24	12
158	80	23	-32	13
158	67	21	1	10
157	48	24	49	-1
158	-14	23	101	-21
157	-61	23	-17	-12
158	-38	26	-165	4
157	-40	19	-40	-5
158	-58	-7	90	-1
158	-53	-19	78	7
157	-40	-9	64	9
158	-20	7	-3	15
158	23	18	0	18
157	100	21	6	19
158	88	13	-10	1
157	44	27	13	2
158	27	42	16	4
157	-71	33	30	-19
158	-134	47	15	-30
158	-104	74	-26	-16
158	-11	81	-37	-9
157	19	41	5	-12
158	37	10	-6	-8
158	56	-13	-12	-6
158	21	-22	9	-3
158	67	-7	14	-1
158	60	-15	27	-4
157	28	-9	16	-3
157	5	-9	13	1
158	-35	19	4	9
158	-119	90	6	14
158	-174	71	4	4
157	-161	21	-7	5
157	-144	11	8	3
157	5	3	51	5
157	160	-3	64	16
158	264	-4	-46	14
157	285	30	-105	21
157	232	73	11	12
157	177	38	25	12
157	29	11	-2	3
157	-87	16	14	-8
158	-116	33	-9	-8
157	-44	33	14	-9
158	-39	3	6	-7
157	-62	51	12	-16
158	-60	74	15	-7
157	-45	39	15	-1
158	11	6	38	9
157	18	-14	35	5
157	29	18	43	2
158	-3	21	19	6
157	-18	-11	24	4
158	-16	-33	17	-6
158	3	-35	-16	-5
157	77	-24	14	0
158	86	-17	-11	0
157	29	22	-85	7
158	1	37	-23	5
158	-28	19	30	10
158	-99	16	-31	6
158	-126	25	-43	3
158	-71	30	0	3
157	11	26	32	1
157	8	28	19	4
158	24	26	33	1
158	19	22	47	10
157	10	19	37	14
157	31	18	15	10
157	9	16	-20	-2
158	15	1	-4	5
158	-5	0	11	10
157	-3	0	19	4
158	-6	6	24	6
158	-15	15	21	2
157	0	22	23	-2
158	5	30	13	2
158	29	29	-12	6
158	48	25	-46	-4
157	65	24	-40	-17
157	58	24	-12	-19
158	50	33	15	-8
157	12	39	90	-1
157	-32	32	149	9
157	-38	23	57	4
157	-15	30	-73	-8
157	33	31	-19	-8
158	23	24	24	0
157	28	31	-48	0
157	18	19	-10	-5
157	5	9	2	-3
157	-13	6	-4	-1
158	-51	6	16	-3
157	-3	10	28	-2
158	45	14	41	0
158	42	10	8	7
158	18	6	-9	17
158	-43	10	2	15
158	-60	7	24	7
158	-32	2	5	7
157	-62	5	-14	0
158	-128	32	9	1
158	-55	49	24	0
158	48	25	-1	-6
157	42	0	-37	-4
158	26	-1	-32	-16
158	-26	15	-6	-9
158	-34	30	11	-1
158	20	36	21	-1
157	75	22	20	5
158	70	19	4	8
157	42	40	33	12
158	92	33	63	0
157	207	20	-26	6
157	187	24	-66	13
158	79	5	6	7
158	17	-10	4	10
158	-87	-22	18	9
157	-133	-35	52	0
158	-127	-16	33	-7
158	-43	34	-12	2
158	-3	51	-40	3
157	-10	-12	29	11
157	-7	-2	27	9
157	-35	83	12	-1
157	22	113	-7	1
158	62	101	-25	-12
158	48	74	19	0
157	31	47	8	2
157	49	15	0	-18
158	52	-15	-4	-12
157	84	-25	23	-5
157	86	-16	74	-1
157	-16	-24	79	-1
157	-82	-8	-43	1
158	-118	10	-105	9
157	-135	15	7	16
158	-121	37	10	15
157	-54	36	6	10
158	-74	19	39	9
157	-92	14	25	3
157	-106	36	46	-4
158	-139	54	51	-3
158	-11	24	43	0
158	64	-12	-17	2
158	113	3	-39	-6
158	175	13	-55	-5
158	213	12	-46	2
158	196	21	10	-1
157	97	21	6	-2
157	63	22	28	7
157	1	10	25	11
158	-5	6	1	0
158	14	10	-17	-14
157	-6	13	-9	-6
158	-6	14	18	2
158	-23	19	11	-4
157	-18	21	10	2
157	-27	11	0	11
157	-24	7	8	10
158	-13	3	-2	8
157	-25	4	0	1
157	-51	17	20	0
158	-61	22	16	2
158	-40	14	20	7
158	10	10	2	7
157	102	2	0	4
158	132	5	16	1
157	71	10	54	0
157	50	17	79	2
158	-5	35	-4	9
157	-92	42	-55	3
158	-124	11	11	-1
158	-74	11	19	4
157	-41	30	-5	-3
158	-49	36	14	-2
157	-7	44	19	3
158	-8	25	56	7
158	25	15	51	9
158	35	7	-13	10
157	27	9	-49	6
158	39	19	-1	0
157	24	16	21	-6
159	9	13	2	-3
157	6	23	31	-1
158	23	29	48	-11
158	27	29	-51	-7
158	61	30	-115	-8
158	55	17	3	-5
157	41	33	7	-13
158	38	35	-1	-13
158	5	24	29	2
158	1	24	12	4
158	-7	17	43	-4
158	-20	26	31	-13
158	-15	18	10	5
158	31	13	-39	2
158	63	3	-6	-1
157	10	-2	25	6
157	-57	-1	16	9
157	-39	-21	37	12
157	-20	-30	22	13
158	-68	-23	42	12
157	-139	9	34	-2
157	-87	31	37	-4
157	12	17	13	-5
158	58	9	-39	0
158	113	24	-35	-1
157	82	31	-6	-1
157	106	30	10	11
158	65	47	21	10
158	-52	61	20	4
157	-99	101	-22	-2
158	-43	112	-23	2
157	62	55	0	3
157	13	43	5	4
157	-3	35	12	4
157	-17	5	15	-6
157	-87	2	9	-1
158	-71	-17	2	-2
157	-24	-55	10	-4
158	75	-92	12	-1
158	68	-93	23	2
158	65	-79	59	2
158	90	-68	65	6
157	80	-35	-32	14
157	70	-22	-101	13
158	24	-42	-20	4
157	59	-24	19	7
158	60	28	10	1
158	43	120	18	-2
158	28	126	13	3
158	-22	35	45	-5
158	-116	45	66	-4
158	-146	49	50	-2
158	-61	21	-29	4
158	-78	27	-75	1
158	-102	23	-21	2
157	-52	30	-1	-1
158	-13	37	17	-1
157	32	32	69	7
157	52	23	84	7
158	67	39	-16	8
157	82	63	-112	-6
158	80	51	-32	-16
158	43	47	2	-23
158	-59	49	-3	-7
157	-119	39	10	7
158	-35	36	-5	9
158	65	19	41	15
157	117	9	41	14
157	122	14	-6	-6
157	122	38	-36	-14
158	93	34	-16	-2
158	-62	22	16	-3
158	-133	41	22	4
157	-86	39	23	-1
157	-56	22	-12	-2
158	-41	8	-25	6
157	-23	6	6	6
157	-17	13	16	12
158	14	39	17	9
157	38	40	25	8
158	5	21	24	5
158	-26	28	34	0
157	-27	32	47	-1
158	-55	29	67	8
158	-106	30	50	6
157	-86	31	15	2
158	-4	26	-15	-4
158	65	13	-16	-8
158	121	2	10	-5
158	133	8	5	-2
157	113	15	3	0
157	53	9	-4	7
158	-10	11	-5	12
159	-27	11	0	-4
157	-25	12	-8	-11
157	18	12	-1	-8
158	59	6	0	-4
157	92	-2	8	-3
158	112	-5	17	0
158	80	-11	23	1
158	65	-13	17	4
158	14	4	13	8
157	-63	4	12	-2
158	-67	17	3	3
157	-39	32	1	7
157	-13	36	4	11
158	-25	50	31	14
157	-70	55	64	5
158	-103	44	42	-2
157	-57	35	-63	12
158	-25	38	-67	21
157	18	30	32	10
158	65	15	2	3
158	48	11	13	-4
158	-12	7	66	-15
157	-61	5	14	-15
158	-33	11	-88	-5
158	-19	17	-65	1
157	60	11	20	4
158	150	4	-34	11
157	157	-2	-7	0
157	126	0	37	-5
157	65	6	54	-6
157	-6	10	68	-9
157	-108	15	-32	7
157	-113	17	-74	15
157	-53	5	-9	-6
157	-59	-14	54	-4
158	-52	-16	59	5
158	-4	-9	61	7
158	-20	-2	1	11
157	-73	11	-19	0
158	-97	43	-22	-8
158	-12	106	-23	-8
158	28	87	8	-1
157	-1	6	-10	0
157	50	20	8	-3
158	97	25	13	-4
157	118	25	31	-6
158	87	34	25	-1
157	72	22	15	6
158	28	24	27	3
157	-23	-5	16	3
157	22	12	23	2
157	2	17	5	-7
157	-42	1	1	-2
158	-20	-3	-6	7
158	-9	-9	-5	-2
157	-38	3	6	-7
158	-70	1	5	3
157	-121	-4	7	5
158	-88	8	8	4
157	-5	25	31	6
157	41	2	38	14
157	105	-41	20	20
157	90	-28	5	10
157	88	0	-5	1
158	4	6	-3	3
157	-40	9	5	4
157	7	6	12	1
157	-16	109	5	2
157	58	183	-18	3
158	58	96	-11	0
157	41	42	6	-4
158	66	49	2	-7
157	82	43	20	-12
158	38	26	45	-5
157	-32	15	47	-2
158	0	21	-24	-1
158	-22	32	-68	9
157	-24	-3	62	9
157	-11	-27	102	-2
158	-18	-4	-36	-6
157	-25	-5	-92	-5
157	-50	5	0	-9
157	-39	0	21	2
158	-20	-2	-41	1
158	-20	3	-18	0
158	-37	14	3	17
158	-23	27	22	11
157	-4	21	21	4
158	-10	16	29	11
157	-12	6	54	11
157	25	6	44	-4
157	43	6	-11	-12
157	23	6	-49	-1
157	13	0	7	-5
158	60	-11	13	0
157	56	-7	-15	2
157	-9	16	-23	-1
158	12	24	0	2
158	12	21	0	0
157	-18	28	-8	2
159	14	49	22	-7
157	52	51	20	-6
157	33	29	36	-1
158	12	24	37	3
157	-11	18	23	3
157	2	20	0	9
157	14	28	-6	10
157	-61	16	8	7
157	-106	5	10	9
157	-97	4	19	3
157	-37	6	13	4
157	-23	19	5	2
157	32	17	6	7
158	80	1	30	4
158	96	-4	41	-7
157	134	2	15	-8
158	86	40	7	4
158	-6	58	12	6
158	-101	32	-1	8
158	-64	13	1	2
157	0	14	12	0
157	13	11	17	18
157	55	-1	27	26
157	133	9	15	7
157	169	54	-12	-26
157	124	53	-32	-23
157	78	0	-34	-1
157	-39	9	-40	2
158	-119	13	-13	7
157	-81	8	6	1
158	-4	28	27	-6
157	-7	29	81	-14
158	-34	36	23	-13
158	-65	33	-62	6
158	-92	33	-20	1
157	-64	15	43	4
158	-73	6	88	7
158	-54	16	104	3
158	-19	17	-49	14
158	14	11	-145	7
157	38	2	-16	0
157	37	1	24	0
157	38	18	4	-1
158	19	31	31	-1
158	1	37	-9	3
158	-5	28	-25	-2
158	-22	11	-9	-3
157	-83	24	1	9
157	-111	27	4	1
157	-20	22	9	2
158	75	9	21	5
158	130	-1	29	-2
158	199	8	32	-6
157	162	2	8	-2
158	79	-15	15	7
157	-39	-4	36	-7
158	-147	24	29	-5
157	-36	18	-2	-6
157	54	-2	-8	-3
158	-24	-8	13	8
158	-75	40	14	6
158	-12	127	6	-6
158	29	97	13	-8
158	60	33	33	4
158	87	35	19	-1
157	98	5	-27	11
157	108	11	-28	7
158	40	-4	25	4
157	-55	-28	18	17
159	-112	-14	3	3
157	-81	20	5	5
157	-41	77	-2	5
158	-42	46	21	6
158	3	0	15	2
158	50	1	27	0
158	104	21	25	2
158	92	14	21	-6
158	61	-1	19	-6
157	9	-4	4	-7
157	-82	-3	3	-11
157	-158	-3	-10	2
157	-237	1	-15	1
157	-163	3	-11	-1
157	-71	-8	-11	3
158	-16	11	-8	-4
158	74	12	4	4
158	146	9	8	2
157	177	14	2	8
157	169	44	-7	14
158	148	75	21	6
157	87	42	26	4
158	30	25	8	11
157	-16	34	30	9
157	-34	31	69	4
158	-52	27	87	6
158	-100	24	-28	8
158	-78	25	-103	-3
158	-30	14	-7	-15
158	-5	16	27	-10
158	7	3	61	-10
158	17	-5	51	-4
158	85	11	-51	10
157	111	14	-19	0
158	60	13	14	-7
157	-50	9	-35	4
158	-142	13	-27	-1
157	-36	16	-6	5
158	50	26	-14	0
158	23	18	18	-2
158	47	1	17	-2
158	98	4	-27	7
158	67	7	-7	13
157	-35	0	23	6
157	-48	4	14	4
157	-22	28	9	-5
157	-19	42	6	1
157	-9	52	9	2
157	-41	53	23	6
158	-26	40	28	10
158	-4	24	26	11
158	-13	14	30	10
157	-8	11	32	7
157	-9	9	27	-6
157	47	13	15	-25
157	64	15	15	-13
158	43	14	14	-4
157	33	15	2	6
158	-45	10	2	3
158	-114	4	15	7
158	-60	9	29	4
158	-12	15	5	-6
157	-23	20	-44	8
157	-25	16	-17	7
158	-49	19	19	5
157	-2	24	4	6
157	47	11	12	7
157	42	4	6	3
158	19	1	0	4
157	-83	31	2	5
158	-112	62	13	-5
158	-92	44	19	-5
158	-42	18	-8	0
157	61	11	-14	-14
158	109	14	8	-14
158	172	4	10	-5
158	222	-24	2	4
157	231	-44	10	10
158	203	-42	13	8
158	162	-41	12	3
158	81	-33	1	-3
158	-4	-3	4	1
158	-27	105	4	-5
157	-100	164	-5	-10
158	-202	92	4	-6
157	-251	93	16	-3
158	-140	90	47	0
157	-37	58	68	-1
158	15	40	-5	12
158	70	19	-51	7
158	81	10	85	-4
158	137	-7	72	3
158	106	9	-96	7
158	37	1	-54	9
158	-63	-6	-16	13
157	-93	-14	-22	11
157	-59	-2	-15	2
157	-60	-1	0	-5
157	3	-12	24	-6
158	7	-2	12	6
157	17	-12	24	9
158	24	2	14	7
158	11	39	20	4
158	11	40	5	0
157	18	-19	8	-6
157	-11	-16	17	-2
157	-58	0	12	2
157	-59	-8	20	-5
157	17	17	3	-4
158	77	32	8	3
157	3	64	14	9
158	-40	71	25	9
158	-42	46	27	19
157	-34	31	8	6
157	-13	35	-11	-17
158	1	24	4	-6
158	10	11	32	-1
158	-18	16	21	-6
157	-43	-3	21	-1
158	-35	-9	12	7
158	-14	-10	14	-2
158	-6	-7	31	-8
158	-11	35	30	-5
158	5	49	-5	9
158	100	21	-18	23
157	154	0	10	24
158	135	5	-30	17
157	122	8	-38	3
158	71	5	-10	-20
158	7	13	-15	-26
158	-57	35	2	-6
158	-87	38	-1	-2
157	-105	12	8	3
157	-119	3	6	6
157	-37	-2	1	6
158	10	8	5	10
157	68	16	2	2
157	142	21	0	-8
158	167	22	-8	-9
157	162	18	6	-6
158	67	21	17	-5
157	-15	24	12	4
158	-20	35	5	10
158	27	30	5	7
158	-46	34	5	0
158	-92	52	6	-4
158	-51	70	16	-9
157	-85	55	25	0
158	-53	19	28	3
157	4	15	39	0
158	33	15	59	7
157	8	11	91	3
157	-13	7	45	8
158	-20	20	-77	12
158	7	30	-36	6
158	16	18	52	-4
158	-16	11	-10	4
159	11	6	-37	11
157	-12	-1	-1	0
158	-22	9	77	-6
158	-35	3	49	-5
158	-57	8	-97	9
158	-25	16	-74	7
158	9	-6	-38	0
158	33	-8	-48	6
157	47	-5	8	4
157	44	-27	17	8
157	19	-26	15	7
157	5	-16	19	2
157	-70	-25	19	2
158	-83	-20	38	-2
158	29	27	40	0
158	57	144	42	-5
157	27	140	22	-10
158	24	40	-4	-7
158	28	41	9	4
158	-5	33	9	7
157	-30	22	0	-4
159	2	23	5	-5
157	43	18	2	-6
158	85	54	0	-10
157	92	74	2	0
157	13	21	19	0
157	-104	-14	31	-5
158	-103	5	25	1
157	-51	-6	24	6
158	6	11	15	19
157	119	-11	8	18
158	132	-30	-1	1
158	148	-39	-5	-13
157	137	-47	-6	0
158	52	9	3	4
157	-39	46	29	-11
158	-89	45	52	-11
157	-88	37	31	-8
158	-86	55	-43	6
157	35	58	-39	5
158	80	41	13	6
158	30	31	7	14
158	7	-1	13	15
158	-68	-21	7	13
157	-107	-11	30	7
158	-74	18	85	15
157	-30	41	36	14
157	29	41	-84	8
158	52	24	-68	-5
158	38	18	31	-5
157	46	19	-16	2
157	41	12	-40	2
157	41	24	-4	-5
158	0	17	20	-17
158	-55	13	32	-6
157	-99	17	28	-6
157	-106	10	23	-24
157	-60	14	12	-26
158	-49	13	13	-11
157	-17	13	2	-2
158	-15	15	8	-3
158	-10	15	0	3
158	70	15	-13	13
158	105	7	-15	15
157	49	12	5	9
157	46	17	27	5
158	72	9	15	3
157	89	12	24	12
157	102	14	55	13
158	15	12	81	-1
158	-69	17	-17	0
158	-50	42	-113	13
157	-20	41	-30	2
158	8	21	19	-4
158	61	29	10	4
158	85	38	43	2
157	143	47	13	9
157	118	26	-9	5
158	-12	18	5	-3
157	-78	39	36	0
157	-13	7	30	13
158	-29	-10	18	9
158	-96	-4	31	-8
158	-37	11	15	-12
158	-74	19	-17	-9
158	-59	31	-32	4
157	-33	24	4	6
158	-5	-6	0	8
158	57	-20	-4	9
158	37	-35	-12	0
158	43	2	-18	8
157	26	40	0	4
158	21	56	6	-7
158	-8	69	22	-2
158	-21	0	10	-4
158	-26	-58	13	2
157	-5	-21	7	2
157	61	-17	0	2
157	49	-17	10	1
158	27	-9	22	4
158	3	28	20	7
158	-53	144	11	-2
158	-81	145	10	-2
158	-21	65	6	2
159	36	66	22	7
157	-10	59	29	2
158	-45	40	36	-4
157	-55	23	12	-1
158	-33	17	-24	4
158	5	16	19	6
157	-10	-2	55	6
157	-37	1	69	5
157	-71	-7	66	6
158	-54	-3	-54	8
158	-23	0	-98	0
157	27	-3	-23	-2
158	58	-5	-42	-1
158	48	-13	-1	-14
158	49	-19	28	-7
158	87	-12	-10	-1
157	132	5	-16	8
157	122	11	-20	15
157	143	6	14	13
157	90	13	4	15
158	32	47	13	-7
157	54	74	16	-18
158	11	67	19	-19
157	-36	31	52	-9
158	-2	10	38	1
157	17	8	5	5
158	2	7	-26	8
157	-20	13	0	7
157	-65	15	12	8
157	-60	6	12	7
157	-49	3	55	6
158	-54	3	83	7
158	-7	2	33	10
158	45	10	-99	6
157	28	12	-63	-11
158	3	4	36	-14
158	-5	25	12	-6
157	-17	13	9	-10
158	-13	-15	-23	0
158	-18	37	-10	-1
158	-56	60	6	4
157	-63	25	-6	2
158	5	12	13	-5
157	50	22	0	-4
158	-3	33	25	-3
157	-59	38	24	3
158	-46	30	26	4
157	-78	22	21	12
158	-78	25	12	8
157	-23	24	39	6
158	3	22	35	4
157	-21	7	12	5
158	25	11	-22	11
158	121	35	-14	2
158	181	75	-16	3
157	221	60	-13	1
158	161	-18	0	4
158	102	-16	-7	4
157	58	-6	-7	-13
159	-37	-2	-9	-7
157	-66	8	0	-2
158	-10	-19	13	-4
158	-23	-23	26	0
158	-54	-8	31	9
157	-31	-7	38	8
158	-50	-14	23	-2
158	-44	-8	0	-4
157	-47	65	9	-1
158	-38	127	21	4
157	-11	50	65	5
157	-17	17	130	4
158	-25	46	95	4
157	-20	36	-97	6
159	5	25	-148	0
158	-4	36	-29	-5
158	4	61	-15	0
157	3	37	-11	1
157	35	-3	10	1
157	114	-6	16	3
158	71	-5	22	-3
158	19	-2	-16	-7
158	7	-2	-16	1
157	-105	-9	7	-8
157	-101	0	9	-8
157	32	22	16	2
157	65	41	38	1
158	9	41	37	8
158	-24	37	8	12
158	-36	31	-8	3
158	4	19	-6	-5
158	2	11	-11	-7
157	-20	-2	-7	-3
158	-24	-8	14	6
157	-28	3	14	10
158	-31	3	48	8
157	-131	-15	66	6
157	-143	-10	-13	14
158	-47	-2	-82	13
157	17	-10	-19	3
157	94	-7	19	3
157	178	24	-4	4
158	236	46	22	-14
158	268	31	15	-16
157	178	22	32	-5
157	59	27	9	0
157	-1	54	4	2
158	10	79	43	4
158	19	39	30	6
157	-25	11	4	4
158	-13	34	-9	7
157	-24	37	16	-10
158	-36	45	8	-8
157	-41	38	0	14
158	-54	31	6	16
157	-43	15	8	14
158	-32	-3	13	17
158	-18	-1	-7	8
158	-24	-2	-10	-12
158	-44	8	-8	-13
157	-60	1	1	-9
158	-40	-6	4	-2
158	20	5	9	3
157	73	4	10	11
158	50	-3	12	3
158	28	-12	29	-2
157	12	-10	22	4
158	-51	2	-8	1
157	-89	17	-10	-7
157	-81	40	8	-9
157	-72	72	4	-4
158	-52	89	33	-4
157	12	33	54	-3
158	47	10	52	2
158	77	23	84	2
157	85	-8	8	-3
157	83	10	-100	-1
157	80	26	-12	-4
157	38	45	58	-1
157	-21	55	-50	7
157	-77	26	-66	10
158	-98	21	-3	13
158	-164	3	5	10
157	-228	-17	3	10
157	-170	-39	9	2
158	21	-42	10	2
157	219	-14	25	3
157	256	-8	26	-2
158	280	-7	10	-3
158	226	1	0	-6
158	132	56	-4	-10
158	71	124	11	-8
157	-3	48	32	-2
158	-7	-17	39	1
157	-37	47	5	4
157	-30	94	-40	8
158	-47	76	-22	2
158	-71	33	12	6
157	-83	48	1	11
158	-106	35	4	11
157	-67	11	15	14
157	-37	4	19	9
157	10	2	58	4
157	78	5	87	-1
157	83	-18	19	0
158	44	-14	-85	7
158	6	4	-44	1
157	-32	19	5	-12
158	-52	30	-7	-14
157	-22	29	15	-3
158	26	10	10	11
157	0	10	19	8
157	-23	28	27	-11
157	-37	30	24	-13
157	-30	30	19	4
157	-1	17	-4	7
157	-26	7	-10	-9
158	1	17	0	-2
158	3	10	13	1
158	16	-3	23	1
157	68	-3	31	14
158	77	6	9	15
157	5	5	-18	16
158	-66	9	-12	4
158	-87	13	-4	-16
158	-192	4	-6	-12
157	-158	1	9	-3
157	11	-5	17	6
158	89	-8	12	10
158	139	3	3	10
158	181	17	-7	14
158	165	24	15	4
157	97	41	61	-1
158	9	84	112	-2
158	-10	94	46	-16
157	37	32	-115	-15
158	59	4	-73	-1
157	28	12	13	0
158	-3	12	-24	7
157	-7	25	3	8
157	-6	43	-5	10
158	-34	35	-4	6
157	-46	3	9	-2
158	2	9	-5	-4
158	51	9	9	-5
157	40	12	-1	-1
158	11	13	16	3
158	-9	10	14	6
157	-81	13	29	0
157	-129	5	41	-1
158	-69	13	51	4
157	-12	11	87	7
158	-23	-4	73	-2
158	-27	-15	-19	2
159	0	4	-73	9
157	63	17	-14	2
158	57	17	6	8
157	20	21	-16	2
157	8	9	0	1
157	9	21	14	1
158	67	65	-33	0
157	54	56	-18	0
158	31	33	10	-4
158	20	37	-17	-8
158	-34	32	9	-4
157	-64	25	-7	5
158	-154	8	3	2
158	-157	30	14	3
158	-18	27	6	-1
157	53	6	18	0
157	78	9	7	3
157	110	13	11	2
158	127	12	11	2
157	48	-13	53	-1
157	-46	-3	79	-1
158	-82	-12	34	1
158	-79	-16	-40	13
157	-5	-7	-18	7
157	66	28	43	2
157	86	119	10	-1
157	88	101	4	-19
157	121	34	-1	-2
158	122	28	2	7
157	56	25	6	0
157	27	18	-10	4
157	-15	9	4	2
157	-30	6	15	4
158	-23	10	29	-4
157	-33	31	30	-13
158	-21	33	27	-10
157	26	3	54	2
157	23	6	44	8
157	-28	9	-101	6
157	-21	2	-120	10
157	-92	-9	14	-2
157	-157	-16	-3	-3
157	-95	-22	-2	2
157	-33	-25	7	2
158	-5	34	-6	5
157	-10	72	28	7
157	-18	7	19	9
158	80	-16	22	9
158	94	18	1	4
158	-52	15	-10	0
158	-61	48	-3	1
157	-12	53	-6	2
157	4	46	7	-4
158	14	31	18	1
158	15	6	26	11
157	42	2	20	-5
158	47	25	15	-2
157	55	51	29	12
158	35	23	27	9
157	43	2	16	7
157	125	10	16	-2
158	144	18	11	-1
158	106	15	17	5
157	67	31	8	0
158	44	37	11	3
157	-6	39	6	0
157	-53	30	5	0
157	-73	33	27	4
157	-64	84	27	6
157	1	80	0	3
157	14	57	-23	-8
157	19	46	14	-16
157	64	21	50	-13
158	33	-9	11	-4
157	-10	-45	-64	6
157	-25	-99	-52	0
158	-107	-111	13	4
158	-144	-32	28	13
157	-87	-5	70	15
158	-34	-17	35	8
158	-55	8	-57	-5
157	-43	16	-23	0
158	-14	14	20	-13
158	-10	0	6	-19
157	18	-14	18	2
158	11	-36	5	12
157	23	-11	-16	16
158	19	15	1	9
157	23	23	6	0
157	30	37	16	3
158	34	64	9	3
157	48	158	18	3
158	55	132	39	7
157	82	43	72	10
158	41	50	103	0
157	-13	36	-7	-4
158	-17	26	-136	-5
158	-59	26	-51	-8
158	-95	11	-8	6
158	-75	9	-33	13
158	-130	10	32	-5
157	-162	18	-19	-7
157	-64	30	-29	1
158	-6	-5	11	4
157	100	-33	15	-8
158	195	-13	4	-8
158	234	-22	-7	-1
158	207	10	23	-2
157	103	53	18	2
158	8	48	19	-2
158	-116	14	10	4
157	-105	-2	8	10
158	-30	9	1	4
157	44	-17	-4	7
157	144	-3	0	9
157	143	13	19	2
158	119	8	46	-5
158	122	30	43	-4
158	63	73	43	1
158	-86	107	40	-9
158	-122	79	30	-14
158	-5	42	13	2
157	5	35	-4	11
157	-15	18	-5	9
158	-29	18	1	2
157	-20	8	4	2
158	19	-2	4	10
157	-15	11	2	1
157	-25	12	1	-4
158	-62	27	3	0
157	-55	17	9	7
158	-54	6	28	5
158	-134	10	36	7
157	-189	7	32	8
157	-232	-11	-2	7
157	-224	-21	-23	-3
158	-121	-17	-12	-15
158	43	-13	0	-10
157	122	10	-9	-7
157	196	16	-5	-3
157	266	22	-6	2
157	281	17	-6	0
157	247	19	6	-4
157	102	35	6	-4
157	-11	42	16	2
158	-34	28	18	9
157	-18	1	14	16
157	21	-22	9	21
158	22	-12	21	6
157	2	-8	56	4
157	-1	-19	57	4
157	-68	-5	25	1
157	-103	36	-1	7
157	-80	127	-19	3
157	-9	89	-68	7
159	129	1	-31	-6
158	125	20	-3	-10
157	101	4	-20	-3
159	78	-22	-2	-2
158	-83	-26	-40	0
158	-167	33	15	0
157	-59	110	72	7
157	10	103	80	9
157	-62	66	-11	9
157	-53	56	-102	1
158	-36	36	2	-13
158	-30	-5	10	-15
158	-11	-4	-7	-10
157	-4	3	19	-5
158	3	11	8	-2
157	3	-7	21	4
157	13	-24	13	11
157	6	-1	14	4
158	12	6	6	-9
157	55	6	8	-1
158	88	-13	21	16
157	41	6	23	11
157	16	31	7	6
157	-50	58	-12	3
158	-193	42	13	-4
157	-184	-9	29	-2
158	-42	23	17	3
158	17	17	22	1
158	44	22	24	7
157	73	19	24	9
158	113	22	25	8
158	158	48	21	3
158	114	36	26	-2
157	66	34	18	-8
158	5	24	6	-13
157	29	42	-1	-5
158	40	3	-3	0
158	-14	-56	-7	-10
157	-14	-31	-8	-18
157	-15	-36	14	-5
158	30	-36	29	-4
158	47	9	14	-1
159	26	3	-15	1
158	12	21	-21	4
158	-31	31	3	9
158	-78	23	3	13
157	-49	36	-18	11
158	-29	31	8	3
158	-14	26	15	10
158	4	24	-24	12
158	10	25	-16	13
158	77	25	26	11
158	80	25	32	10
158	63	22	43	10
157	51	15	66	6
157	99	17	72	-2
158	113	19	16	-11
157	9	19	-124	-1
157	-37	25	-118	0
157	-83	22	-32	-1
158	-134	17	-13	-4
157	-179	8	17	2
158	-122	8	2	1
158	-60	23	20	-3
158	-38	21	34	6
158	40	11	56	-1
158	50	5	68	-2
158	58	19	-30	-1
158	42	24	-51	4
158	28	-10	15	-5
158	18	-31	13	-1
158	-91	-34	9	10
158	-155	-4	23	2
158	-118	50	17	4
157	-26	110	34	4
157	67	196	19	14
158	80	163	9	7
158	105	81	-2	6
157	154	47	-1	4
158	156	2	4	-16
157	94	25	2	-10
159	12	19	8	-16
157	3	7	6	-21
157	14	28	22	-5
157	21	44	29	3
158	20	33	35	1
158	8	-15	23	11
158	-60	-87	13	10
158	-43	-147	15	6
157	-8	-87	7	9
158	-83	-42	17	4
158	-95	-18	20	-4
157	-8	47	10	-1
158	87	15	20	4
157	81	-1	17	7
157	84	23	-13	2
157	19	25	-28	-20
158	10	33	-15	-15
158	69	28	5	-9
158	43	38	-2	-8
157	10	34	6	3
158	-34	34	24	3
157	-44	47	6	13
158	-101	28	-25	10
158	-63	14	-34	7
157	3	-3	-4	13
157	-16	-1	-2	12
158	-4	15	4	16
158	-18	25	36	22
157	-28	29	38	11
158	-100	43	30	0
158	-86	70	8	-21
158	-6	83	-10	-26
157	24	46	-4	-11
157	87	19	-16	1
157	111	-3	-11	8
157	126	-4	19	-1
157	84	23	-2	4
158	19	14	-7	-1
158	-28	37	-7	0
157	-16	31	4	12
157	14	28	59	10
158	10	40	97	8
157	35	24	9	1
158	14	-31	-96	-5
158	3	-71	2	-12
157	-7	-2	37	-5
158	-22	23	-19	12
157	-25	3	-3	15
158	-29	-6	6	14
158	-21	-34	30	12
158	-15	-22	27	3
158	4	-11	16	-7
158	-2	-5	-22	-7
157	-7	2	-27	-4
157	36	31	17	0
158	44	136	9	3
157	10	139	26	1
157	32	48	38	8
158	-5	32	58	9
158	-58	25	72	2
158	-34	47	-13	-9
157	50	31	-93	-6
157	58	-13	-25	-6
157	33	-11	21	-4
157	34	-10	1	9
157	14	-3	37	10
158	5	34	11	10
157	-44	79	2	12
158	-48	65	10	25
158	-17	52	8	2
157	-3	39	3	-15
158	-50	13	4	-18
158	-46	-19	8	-21
157	-4	-100	-10	-11
157	47	-89	-8	-10
158	93	-3	3	-1
157	52	42	9	1
158	77	50	5	8
157	65	7	16	8
158	26	0	10	6
158	-17	24	10	7
158	-47	16	10	10
158	-25	15	8	11
157	19	-3	16	4
157	19	-6	14	4
158	-67	-8	25	2
157	-149	2	27	0
158	-158	32	24	3
157	-65	39	12	12
157	38	48	-12	11
157	104	59	-14	2
157	117	61	10	-6
157	140	51	8	0
158	169	49	1	-1
157	113	38	6	-5
157	32	10	4	2
157	-2	13	14	0
157	-35	40	43	-4
157	-66	46	72	-3
158	-68	36	-12	4
158	-104	25	-107	4
158	-108	-2	-37	0
157	-29	-17	18	-2
158	-1	1	-6	-2
159	18	1	22	2
158	80	2	29	8
158	85	1	36	4
158	98	-5	17	8
158	111	23	-11	13
157	57	21	-1	-7
157	-27	9	-19	-8
157	-69	15	-10	-4
158	-92	23	0	-7
158	-60	34	0	0
157	-25	19	12	4
157	-58	14	21	4
158	-16	17	19	3
157	11	13	23	-5
158	18	6	57	-4
157	31	-3	90	2
158	35	-1	62	1
158	38	4	-43	7
158	-19	-13	-73	11
157	-63	-31	-34	-15
157	-55	-4	-31	-22
158	-36	86	-1	-16
157	45	142	13	-9
158	90	67	0	6
158	93	19	12	2
158	98	11	8	2
157	42	6	13	8
158	-1	23	15	7
157	4	20	13	2
158	32	14	10	2
157	-75	21	6	3
157	-157	17	5	7
158	-84	5	3	8
157	-9	58	17	3
158	22	46	5	4
158	48	46	0	3
159	81	49	23	11
157	117	6	15	7
158	129	4	20	6
157	63	-23	15	6
158	5	-20	-8	3
158	-2	-14	-5	5
157	-1	23	21	11
158	-4	32	35	11
158	3	18	30	-3
158	-49	-2	23	-4
158	-81	-7	-1	-4
158	-67	8	-11	-14
158	-109	6	4	-2
158	-87	22	-1	6
157	5	24	-4	-10
158	60	82	-5	-5
157	63	122	-7	-6
158	58	102	4	-1
158	49	94	21	-5
158	29	73	79	-3
157	12	17	89	13
158	9	-99	-27	22
158	-5	-191	-96	28
158	-16	-128	-24	13
157	-3	-75	-2	-8
157	-9	-39	-11	-4
157	-25	2	2	11
158	-9	-7	-10	-2
157	21	17	12	-5
157	14	24	12	-4
157	-2	28	23	-2
157	-16	34	22	-3
158	-34	49	9	-10
157	-42	52	1	-9
158	-42	31	-13	-2
158	-28	37	16	-2
158	-4	41	13	-2
158	53	40	2	0
158	107	41	5	1
158	75	43	16	4
157	-21	43	25	0
157	-48	47	21	-3
157	-25	36	39	-6
158	-49	26	57	-5
158	-34	37	52	4
157	24	40	-25	10
158	102	38	-81	25
157	99	30	-15	15
157	22	13	9	3
157	-16	10	-3	7
157	-4	7	32	-1
157	84	-5	-2	-3
157	99	-10	-42	7
157	48	-14	1	14
158	-8	-3	14	2
157	-4	-2	4	2
158	52	-21	15	-1
157	69	-10	15	-5
158	65	24	23	6
158	-35	33	21	1
158	-38	15	12	-12
157	-27	26	5	-9
158	-92	119	0	-4
158	-103	168	2	-15
158	-69	129	2	-2
157	-27	63	7	8
157	-3	15	7	11
157	32	14	2	10
158	10	-4	-1	6
157	18	1	13	9
158	28	-2	48	7
157	38	-3	58	-2
158	27	-2	26	-11
158	-2	-12	-13	-7
157	15	-3	-15	-2
157	-5	-7	14	-5
157	-18	-3	3	-8
157	-14	7	-7	-7
158	-39	12	10	-3
157	-70	0	14	0
158	-103	1	32	11
158	-106	-14	47	20
158	-41	-22	69	25
157	10	28	61	21
157	85	38	-81	4
158	197	19	-148	-9
158	216	37	-12	-13
157	167	46	-7	-2
158	94	42	-20	0
158	-26	17	26	-7
158	-134	-53	0	4
157	-179	-28	13	0
157	-71	46	-5	2
157	53	18	16	3
157	38	35	22	6
158	71	67	12	10
158	43	54	19	6
158	17	45	-5	-4
158	24	38	-16	-12
157	-33	16	-1	-1
158	-11	-37	20	-2
157	3	-98	19	-5
158	0	-130	33	-4
157	43	-41	24	-2
158	42	25	26	7
158	18	51	26	2
158	4	70	36	1
158	-29	57	56	-1
159	-34	60	45	0
158	-41	35	35	10
158	-36	47	22	2
158	9	51	-8	2
157	16	29	-86	11
158	14	8	-59	13
158	2	-13	-37	14
157	-18	11	-29	2
158	-28	43	14	-3
158	-25	36	-4	-1
157	-32	24	25	-3
157	-29	36	29	1
157	3	33	24	-3
159	11	25	9	-5
157	24	24	0	-5
158	-2	29	15	4
157	-64	27	13	6
158	-122	-5	13	0
157	-103	-41	-12	-2
157	-39	-19	-16	-9
158	5	-30	1	-2
158	106	-48	13	3
158	215	-10	13	6
158	292	64	38	9
158	266	200	47	6
158	151	160	13	10
157	-14	24	-10	-1
157	-70	14	8	-12
158	-39	25	23	-12
158	-115	11	8	-3
157	-100	25	27	11
158	-15	48	38	6
158	-4	37	36	7
157	-37	47	2	2
157	-26	52	-35	2
158	3	23	-21	-4
158	-3	-50	-5	-3
157	-39	-68	-5	5
158	-68	-62	-28	9
157	-53	-68	-42	9
157	-48	-5	-11	5
158	7	-19	25	7
158	61	-11	90	8
157	32	23	88	4
157	43	48	-51	-14
158	60	55	-78	-7
157	16	21	40	-3
157	-29	17	22	-4
157	-25	2	-20	4
157	-4	-4	9	3
157	3	-10	8	6
157	7	-9	14	-1
157	4	6	3	0
157	22	15	3	0
158	28	28	6	0
158	-4	53	12	0
157	-2	67	12	9
158	10	45	19	9
157	-25	34	18	7
157	-22	37	8	11
158	40	32	6	0
158	75	28	1	-13
157	21	25	13	-2
157	-105	23	16	0
158	-104	14	14	-4
158	50	-3	10	-2
158	30	-3	29	-8
158	-1	1	66	6
158	101	23	28	12
158	90	50	-51	7
157	38	56	-27	4
157	40	38	5	-1
158	35	21	-49	5
158	16	31	-25	-5
157	77	49	5	-1
158	61	42	9	-3
157	-35	15	40	0
157	-50	-4	35	9
157	-115	-6	7	8
157	-145	12	-38	7
158	-69	28	-6	0
158	27	43	21	-3
157	62	15	8	-3
157	52	-54	15	-9
158	21	-88	-1	-2
158	5	-66	14	10
157	49	21	40	13
157	10	46	48	7
158	17	96	23	-5
158	48	179	6	-13
159	23	88	5	-17
158	34	22	-7	-6
158	11	15	-15	-4
158	-35	-30	10	-2
157	-59	-62	12	6
158	-44	-44	3	12
157	-36	-23	23	17
159	-34	-38	35	7
157	28	-25	20	8
158	49	-9	-28	11
157	-1	13	-25	7
157	-11	35	20	-1
158	-75	43	63	0
157	-199	58	36	-3
158	-158	56	-85	8
157	7	55	-91	6
158	87	41	31	-2
157	144	40	26	5
158	185	39	8	-12
158	185	31	35	-10
159	169	32	34	-2
158	80	12	43	1
157	-8	6	-6	3
159	-75	-10	-11	8
158	-61	-7	1	4
158	-43	28	-11	-1
158	-37	33	4	6
158	-7	7	7	2
158	-41	13	4	1
157	-69	31	7	-2
158	-79	24	2	-4
158	-59	29	6	-5
157	-61	37	17	-6
157	-15	34	7	0
157	74	30	17	3
157	137	21	25	10
158	137	7	24	18
158	92	7	-3	8
158	31	9	-31	-8
159	-45	7	-20	-5
157	-41	14	1	-5
157	8	13	26	-1
158	26	11	64	-2
157	11	9	59	-4
157	-25	17	-45	14
157	-98	13	-69	17
158	-101	5	4	16
158	-61	12	0	8
157	-42	21	5	-3
157	13	21	19	-17
157	52	24	39	-15
157	107	22	73	-5
158	135	23	47	-1
158	99	31	-1	5
158	23	50	-34	5
157	-33	52	-7	6
157	-10	47	-27	1
159	-32	68	-43	4
158	-46	50	-2	-4
158	-34	-13	-13	-4
157	-83	-49	6	-1
157	-65	-57	18	1
158	3	-83	38	2
157	43	-51	48	-1
157	88	-49	25	3
157	120	-18	25	8
157	203	32	16	9
157	148	-10	8	-10
158	5	2	0	-18
157	-6	52	12	-5
158	23	137	23	-2
157	-64	144	44	4
158	-218	64	86	3
157	-211	44	99	4
157	-132	-6	-13	16
157	-36	-49	-124	24
157	-9	33	-37	4
157	13	54	-15	-5
157	37	23	-42	3
158	80	33	4	-5
158	116	15	-14	1
158	68	21	-4	-7
158	46	10	2	-10
157	14	14	15	-6
158	7	23	25	0
158	-15	17	29	3
158	-29	14	36	4
158	-44	-8	-9	12
158	-30	-14	-43	14
158	43	-12	-15	14
158	58	26	8	-6
158	87	52	-2	-6
157	90	39	16	1
158	93	29	10	0
158	115	49	19	-2
158	40	48	30	2
157	-100	25	12	5
157	-157	16	0	6
157	-152	13	8	10
157	-160	10	24	9
158	-25	14	10	14
157	105	3	2	9
157	124	13	-12	-7
158	79	22	-7	7
157	-5	9	6	10
158	-45	15	10	-2
157	-4	11	27	0
157	47	19	39	1
158	28	27	72	-1
158	33	19	90	-5
158	16	6	-6	-13
158	11	24	-123	-12
158	7	24	-52	-11
158	-51	3	24	-10
158	-31	8	-2	-3
158	-6	-18	27	-1
158	-1	-17	6	2
158	-30	6	-19	-2
158	-78	9	-2	-6
158	-86	29	2	-6
157	-84	48	9	0
157	-38	55	17	7
157	40	51	36	6
159	53	46	52	13
158	67	36	40	9
157	78	33	1	6
158	80	37	5	3
157	75	23	28	0
158	40	12	-7	7
158	62	16	-31	13
157	44	15	24	14
158	26	13	27	18
158	16	2	-6	15
157	-8	-5	-18	2
157	-11	-3	-31	-7
158	-24	-13	8	-10
158	-18	-2	5	-5
158	-16	28	14	2
158	0	18	16	-1
158	5	-11	-4	2
157	-8	37	3	4
158	-61	81	-1	3
157	-105	16	10	2
158	-60	-28	9	5
157	-17	-39	50	8
157	25	-31	83	4
158	63	-9	-4	4
158	64	-26	-98	8
157	65	-39	-41	2
158	58	10	-9	-9
158	31	132	-32	-26
157	13	148	22	-10
158	51	84	33	2
157	64	72	42	-8
157	-24	44	30	0
159	-63	35	28	-2
157	-71	59	16	2
158	-83	64	-9	7
157	23	36	22	2
157	175	35	32	-1
158	169	-33	19	-9
158	34	-69	-19	-5
158	-56	-45	-8	-1
157	-172	-89	15	-3
158	-103	2	1	1
157	1	32	9	2
157	-54	11	21	0
158	-6	64	28	8
158	28	63	22	10
159	44	28	6	11
158	17	-52	-14	12
158	-24	-42	-10	4
157	-28	-59	11	-7
157	-40	-77	12	-2
157	3	-15	6	2
157	35	-6	22	-4
158	46	34	60	-1
157	22	60	60	0
158	14	61	-31	11
157	31	71	-86	16
157	32	75	-24	16
157	-12	66	-8	19
158	-80	49	-17	-3
159	-33	41	0	0
158	75	37	7	1
158	83	28	24	-8
157	65	17	37	-1
157	124	21	58	-6
157	103	18	42	-9
158	-13	11	5	-8
158	-119	11	-16	0
158	-132	17	-7	7
157	-88	27	12	-1
158	-41	46	19	-4
158	31	67	20	-5
158	117	42	-11	-3
157	223	4	5	-7
158	187	-2	34	-6
157	83	-6	-23	2
157	7	-5	-41	-4
158	-87	-27	-28	-12
158	-100	4	-20	-8
158	-103	51	3	2
158	-55	18	13	6
157	-7	4	16	7
158	-24	8	10	13
157	-46	4	12	10
157	-64	-1	21	6
158	-50	-13	29	4
157	-34	-38	28	9
158	0	-33	29	2
158	2	27	21	0
158	3	41	13	7
158	24	14	8	4
157	-25	81	6	4
157	-83	205	36	12
157	-62	181	75	11
157	-36	80	57	11
157	-12	47	-71	10
158	46	-7	-114	-3
157	86	-91	-3	-11
158	130	-98	5	1
157	122	-35	-8	4
157	84	-20	10	2
157	56	-22	-1	4
157	15	2	21	-1
158	21	1	22	-2
157	8	13	9	-4
158	-19	22	-23	-5
157	-23	23	-11	-1
158	-37	26	25	-2
158	-40	22	32	2
157	-36	17	38	4
158	-25	8	21	4
158	-20	4	2	-5
158	-41	-13	-13	-4
158	-45	-14	-28	2
157	10	3	6	12
158	20	11	28	21
157	4	19	1	11
158	-36	42	3	4
157	-48	74	5	-6
158	38	72	20	0
157	77	55	34	1
158	91	51	33	2
157	92	44	1	8
157	132	29	-24	-1
158	151	19	3	-4
158	74	8	2	-6
157	-13	11	-10	3
157	-11	13	3	3
157	106	0	18	-3
158	25	12	22	-3
158	-43	28	13	-2
157	-55	31	13	-1
158	-101	33	13	-5
158	-69	32	19	-6
157	-10	29	36	-6
158	88	0	71	-3
158	48	-70	86	0
157	-30	-36	6	4
158	-48	8	-68	11
157	-64	-20	-34	1
158	-111	40	-11	-6
157	-172	42	-15	-8
157	-117	26	-1	-2
157	-49	58	1	5
158	-36	87	21	7
158	-6	60	13	10
158	59	-15	10	20
158	101	0	8	23
158	112	1	0	7
158	88	13	0	-16
157	18	44	-4	-20
158	-13	60	5	-6
157	-10	69	15	3
157	-43	58	35	0
157	-72	54	22	3
158	-21	-7	-33	7
157	72	-59	-48	6
157	126	-50	2	-2
158	97	-83	9	-2
158	80	-40	11	-1
158	27	7	16	7
158	-111	-62	8	5
158	-128	-42	20	5
158	-37	-15	16	9
158	32	-26	26	2
158	72	-4	13	6
157	71	39	7	-4
158	112	163	7	-6
158	99	183	35	-2
158	8	70	90	-4
158	-37	71	55	4
157	-17	94	-58	3
158	22	55	-81	1
158	16	21	-13	0
158	33	4	-45	1
158	21	8	-15	8
157	-25	3	23	1
157	3	1	13	-9
157	-8	4	23	-10
158	-26	15	-19	-4
158	1	11	-4	3
158	0	30	11	8
158	7	62	14	4
157	5	47	5	-6
157	-17	19	2	-5
157	-5	30	3	-2
158	-21	30	-7	2
157	-29	-25	6	2
158	-52	-116	13	7
158	-102	-110	30	11
158	-58	-20	48	11
158	-33	9	53	7
158	-5	31	22	3
159	32	31	12	-5
157	48	33	21	-11
158	80	36	-8	3
158	94	11	3	5
158	82	14	15	-2
157	33	14	-19	0
157	1	11	-24	4
158	-28	7	2	-1
157	-40	5	7	0
158	-16	30	8	3
158	-31	40	15	0
157	-35	39	20	-1
157	-23	44	23	3
158	-94	41	8	8
157	-172	21	2	9
158	-148	10	6	10
157	-48	38	6	2
157	47	60	-2	1
157	181	46	2	3
158	248	38	4	4
158	278	40	7	8
157	259	45	50	6
158	124	26	83	2
157	45	-69	27	7
158	39	-36	-80	6
157	38	52	-59	-4
157	-47	-3	-12	-1
157	-129	7	-22	5
157	-157	17	19	-5
158	-142	19	16	-6
157	-47	25	18	-18
157	-17	37	16	-15
158	-2	52	-14	-4
158	5	27	-1	0
157	-28	35	4	3
157	-62	24	13	10
157	-56	19	42	11
157	-16	1	88	9
157	24	-6	70	9
158	46	-25	17	0
158	12	-31	-34	0
158	-35	11	-93	-1
159	-66	24	-49	-1
158	-36	16	8	-8
157	4	33	-22	-4
157	0	144	2	2
158	20	136	13	2
158	58	2	14	-3
158	93	21	18	-7
157	102	3	-1	4
158	63	-25	24	-1
158	36	65	26	0
157	20	35	26	8
158	30	23	19	6
158	19	38	29	10
158	-69	0	48	1
158	-101	-33	27	7
157	-57	-110	-22	6
158	-23	-87	-58	-6
158	51	-23	-24	13
158	73	-20	0	8
158	61	1	-2	2
157	34	17	15	1
158	-51	13	23	1
158	-57	30	21	5
158	-47	34	34	-1
158	-1	43	42	-1
158	20	27	14	2
158	17	11	-13	4
157	106	17	8	-1
157	155	7	24	-2
158	116	5	22	-4
157	67	9	22	2
158	49	19	12	5
158	2	49	4	4
