File Name: not saved
Channel 3: 'EKG', 22370 values, raw ADC, no filters.
Channel 4: 'FCR_EMG', 22370 values, raw ADC, no filters.
Channel 5: 'FCU_EMG', 22370 values, raw ADC, no filters.
Channel 7: 'ECU_EMG', 22370 values, raw ADC, no filters.
Channel 8: 'ECR_EMG', 22370 values, raw ADC, no filters.

158	-1	16	-2	0
158	-3	14	-7	3
158	-8	19	-4	3
157	-8	15	-9	0
157	0	14	8	-8
157	47	13	4	-3
157	103	14	-7	-1
158	99	17	-9	1
158	45	18	22	2
157	5	19	73	2
158	-41	20	92	4
158	-123	18	41	2
158	-197	16	34	0
157	-156	18	48	4
158	-36	15	35	4
158	-31	15	31	-4
157	-7	21	-12	3
158	15	22	-39	6
158	10	18	-24	6
157	29	10	-2	-1
158	24	17	-7	2
157	28	18	-2	4
158	18	19	-1	9
158	36	19	6	10
157	39	16	7	-4
157	38	24	-19	-7
158	40	25	-29	-10
157	28	24	-12	-6
158	28	23	37	0
157	19	20	46	3
158	10	14	-13	1
158	-19	15	-58	-2
157	-13	17	-25	2
158	-4	18	6	1
157	-44	20	23	8
158	-65	15	33	6
158	-75	8	-3	4
158	-54	11	-31	4
158	18	16	-24	-1
158	53	15	27	2
157	83	18	49	-4
158	116	17	37	0
157	131	16	42	-1
157	148	19	22	-6
157	99	15	37	1
157	38	17	60	2
158	2	18	0	-1
157	-44	19	-98	4
158	-95	26	-48	10
158	-77	21	16	3
157	41	23	-7	9
158	40	24	63	5
157	-9	19	31	2
158	2	24	-82	2
157	-20	30	-64	-1
158	5	22	30	-4
158	-17	21	16	-4
158	-30	26	-8	-6
158	-39	18	2	-10
157	-41	19	19	-3
157	-9	16	68	-1
158	-16	13	21	-4
157	-16	13	4	2
158	-3	11	2	5
158	18	7	17	3
157	33	11	27	7
158	40	14	35	2
158	12	15	50	6
158	11	17	5	13
158	38	19	-38	13
158	88	25	-23	3
158	90	25	11	4
158	48	34	-4	9
158	41	36	6	1
157	-36	32	-6	-4
159	-125	27	-5	2
157	-190	17	-5	4
158	-65	10	-11	-7
157	54	10	-5	-8
158	17	13	-8	0
158	20	8	25	1
158	-124	5	51	4
158	-188	8	58	-1
157	-105	11	45	-2
157	-3	22	16	4
158	112	22	4	7
158	181	14	4	2
157	226	13	15	-3
157	169	25	15	-6
157	121	23	13	-6
157	48	22	13	-5
157	-63	19	16	4
157	-144	15	30	1
157	-93	17	29	10
158	-14	13	2	7
158	-46	19	-13	-6
158	-11	26	-16	8
158	-15	27	-2	11
158	7	26	15	7
157	18	21	-2	6
158	2	15	-27	6
158	19	14	-37	1
157	11	13	-29	-8
158	17	9	-16	1
157	13	12	-19	-1
158	24	17	-44	-13
157	28	10	-43	-15
157	37	4	-1	-9
157	31	13	26	0
157	14	15	23	8
157	6	17	79	4
157	1	18	142	4
157	3	14	67	-4
158	-4	18	-8	0
158	11	22	-43	11
158	16	22	8	12
158	21	21	30	14
157	16	22	17	1
158	-2	21	23	1
157	-1	19	-45	1
157	3	24	-53	0
158	3	25	-20	7
157	-3	19	30	-6
158	1	20	-6	-18
157	-1	22	-26	-14
159	-1	21	21	4
158	-3	18	32	3
158	-6	17	57	6
157	3	23	49	13
158	8	22	50	6
157	12	16	8	10
158	14	9	3	7
157	0	14	16	-9
158	-9	16	1	2
157	-18	14	14	13
158	-46	14	-25	11
158	-19	13	-48	11
158	45	22	-49	2
158	41	23	-22	6
157	10	24	12	-2
158	-12	26	19	-8
158	-35	22	22	-1
158	9	17	10	2
158	70	16	15	0
158	48	13	29	2
157	42	14	59	9
157	40	14	53	-2
158	-11	17	-32	-1
158	-114	23	-59	-1
158	-175	16	6	-6
158	-67	21	9	-4
158	-1	23	27	-1
157	21	19	85	-2
157	94	24	53	-1
158	154	25	-35	-1
158	157	27	-52	7
158	93	21	33	9
157	71	18	-17	11
158	-23	22	-55	12
157	-142	10	0	4
158	-202	7	-19	-6
158	-97	10	-10	-2
158	65	15	-2	-4
158	24	17	-13	0
157	27	19	4	9
158	-10	23	11	4
158	-12	23	4	6
157	44	27	5	4
158	25	27	33	-6
158	20	29	59	-9
158	-9	31	46	-1
158	-5	27	28	-1
157	-6	25	14	5
157	11	17	-9	6
158	18	12	-22	-4
158	6	14	-4	-3
157	9	14	-12	-6
158	20	11	-25	-10
157	39	11	15	-15
157	19	14	17	-11
157	30	14	10	-1
158	19	14	16	2
157	18	9	13	4
157	44	2	20	2
157	34	6	12	4
157	-2	8	6	7
158	-17	15	15	0
157	-9	21	1	9
158	-36	22	39	9
157	-27	17	82	7
157	12	18	24	11
158	46	23	-17	0
157	36	29	-53	3
157	16	31	-50	3
157	23	24	-42	-3
157	72	24	-60	4
158	106	21	-4	9
158	5	21	34	4
157	-56	18	53	6
157	-46	17	81	9
158	-56	15	84	3
158	-101	13	64	3
158	-61	14	18	0
157	48	16	10	-3
157	14	15	14	3
158	-50	21	34	6
158	-117	24	57	6
157	-96	21	0	6
159	-15	16	-34	-2
158	-17	15	-29	10
157	68	19	-13	9
158	67	22	-10	-12
157	34	20	-24	-11
158	35	16	4	-13
157	30	17	7	-3
158	48	22	4	3
157	23	23	-14	-3
158	28	24	-25	-1
157	19	21	-12	-6
158	26	22	-7	-6
157	24	20	0	-4
157	19	18	-5	-1
158	22	19	-5	4
158	14	17	-8	7
158	24	14	-11	6
157	5	14	-9	-3
158	-25	14	-7	-2
157	-61	18	13	-1
157	-43	22	27	3
158	-38	14	14	7
157	-26	7	6	8
157	13	18	37	9
157	30	20	83	10
158	48	17	101	11
158	49	21	1	10
158	60	22	-101	10
157	56	19	-22	-16
158	16	14	45	-21
158	-13	11	23	-5
158	-15	4	34	-1
158	-17	7	30	4
158	-9	12	-6	-5
157	18	24	-19	-6
158	45	30	-10	0
158	31	28	-4	8
158	19	31	33	9
157	16	33	87	4
158	-20	33	107	4
157	-9	28	6	13
158	-16	18	-109	17
158	-19	17	-81	1
157	-8	16	-21	-7
157	-10	12	-19	2
158	10	17	-30	2
158	8	12	4	0
157	5	9	14	-1
158	1	8	19	-1
157	0	9	14	0
158	4	13	19	-2
158	-18	17	25	-1
157	-36	16	5	-1
158	47	17	-3	2
159	112	21	-1	3
157	72	17	-2	1
158	70	18	-10	2
157	40	16	14	-2
158	34	17	51	-3
157	-7	15	60	-5
158	-11	13	16	1
158	16	19	-3	9
158	-127	21	28	-2
158	-194	17	4	-3
157	-261	18	-13	0
157	-158	18	10	-1
157	19	17	0	6
157	27	19	13	11
157	84	18	25	7
158	62	21	31	-5
158	87	21	9	-8
158	90	25	-18	-10
157	47	26	0	-9
157	58	24	9	-7
158	40	24	11	-1
157	30	24	13	7
157	13	19	27	8
158	10	16	33	8
158	2	19	17	4
157	5	17	-15	0
157	11	14	-29	3
158	15	17	6	7
157	14	18	19	7
157	8	15	24	-1
158	10	15	14	-11
158	5	15	-28	-9
158	13	15	-50	11
158	10	15	-38	21
157	7	13	-24	12
157	1	19	-8	-1
158	-2	18	9	-3
157	-5	15	24	-3
158	-23	16	25	0
158	-22	21	3	4
157	-11	23	10	5
158	3	18	15	11
158	18	19	9	3
157	19	19	18	-6
158	27	19	10	-12
159	38	19	15	-13
158	46	17	32	-3
158	45	12	67	4
159	13	14	49	8
158	-28	20	38	2
158	-50	17	63	0
158	-25	19	10	3
157	-2	17	-32	6
157	1	17	-21	-7
157	17	28	-12	-14
156	-4	26	-20	2
158	-12	21	-2	5
158	-27	22	-44	5
157	-39	14	-93	13
157	-8	15	-12	2
157	-3	19	46	10
158	13	17	59	7
157	18	19	98	2
158	25	17	45	0
157	37	17	12	0
157	22	24	35	6
157	-29	24	13	9
158	-79	24	13	11
157	-40	21	13	6
158	-1	16	38	-1
157	57	13	-11	-8
158	144	24	-122	5
157	143	26	-66	3
158	124	17	51	-1
157	78	16	74	2
158	-13	6	35	4
157	-130	8	-116	10
157	-140	18	-109	1
157	-24	13	1	-1
158	-27	16	0	-1
157	-14	17	34	-1
158	5	17	6	0
157	5	16	28	2
157	22	19	72	4
158	0	22	124	-6
157	10	19	112	-4
158	4	14	21	-5
158	7	14	27	-5
158	3	15	-16	3
158	-3	18	-37	8
157	-7	19	-7	1
157	-17	17	0	0
157	-9	18	-19	0
159	-5	18	-28	-4
158	9	21	-17	-3
158	16	23	-24	0
158	24	20	-16	1
157	35	16	-6	-6
158	32	14	-4	-6
158	18	14	-3	-7
158	-3	17	-1	-5
158	-12	17	9	-4
158	-22	15	15	-7
158	-27	17	13	-1
158	-2	16	0	4
157	25	19	-9	12
157	30	26	4	10
157	36	32	9	6
157	22	27	13	1
157	20	28	37	3
158	19	27	48	8
158	16	21	35	13
157	17	19	-28	18
157	12	20	-46	9
157	-1	18	-5	-3
158	-4	18	-1	-2
157	14	15	25	1
158	-21	16	43	6
157	-73	22	49	1
157	-118	19	56	-5
158	-94	14	16	1
157	-22	13	-28	-5
158	-2	12	-46	-4
157	44	20	-19	-5
158	125	18	0	-4
158	213	17	-19	-2
158	201	17	-37	2
157	108	14	-15	6
157	-13	17	21	0
158	-128	15	28	12
158	-131	15	28	1
158	-150	15	25	-3
157	-84	15	29	-4
158	52	17	27	-1
158	36	18	25	11
158	43	14	24	15
157	32	11	16	6
158	12	14	10	0
157	12	17	22	-4
158	-9	16	41	-6
157	16	20	16	0
158	17	17	6	2
158	26	23	6	-2
157	2	28	-4	1
157	-14	21	-6	0
158	-2	17	-8	-2
157	-5	17	5	2
157	4	15	-1	4
157	2	18	9	-1
157	0	17	29	-3
157	-18	17	8	8
158	-26	19	-4	10
158	-15	16	5	6
158	-5	11	-3	4
158	13	15	-17	5
158	17	17	-2	3
158	29	17	13	0
157	34	22	-31	8
157	28	25	-35	8
157	18	25	19	7
157	14	23	6	9
158	13	23	23	-1
157	3	19	50	-6
158	0	18	35	-1
158	-1	22	34	3
157	-11	20	15	3
158	-12	15	10	0
157	-6	15	8	-16
157	-3	16	-39	-15
157	4	21	-47	-6
158	10	22	6	-1
157	13	15	55	2
157	22	15	69	-3
158	26	20	35	-3
157	20	17	15	0
157	12	17	2	0
157	11	18	-3	1
157	7	17	5	-4
158	1	19	-2	2
157	3	19	8	4
157	3	15	1	3
158	1	17	5	6
158	1	17	8	2
157	-3	13	-5	6
158	0	17	-19	8
158	-1	18	-25	10
157	1	17	-16	13
157	0	17	-27	11
157	0	17	-24	9
157	1	19	13	12
157	0	19	35	19
157	5	19	27	22
158	4	23	40	16
157	5	21	23	11
157	0	18	8	3
157	0	20	37	-8
157	5	18	28	-12
158	11	17	16	-24
158	10	18	25	-43
158	5	15	27	-33
158	3	11	-17	-28
159	-2	10	-52	-39
157	-1	15	-80	-33
157	10	17	-79	-11
157	8	14	-14	-3
158	0	16	26	-3
158	4	17	46	2
158	8	18	41	9
158	14	23	92	13
158	11	26	137	6
157	8	27	48	7
157	14	28	-17	10
158	7	27	-32	13
157	3	19	-26	16
158	3	17	-16	16
157	8	19	-47	20
157	11	22	-68	18
158	6	19	-34	14
157	3	15	-9	7
159	3	15	23	9
157	3	15	39	13
157	4	14	7	5
157	4	15	34	-2
157	3	21	23	3
158	3	17	6	10
157	2	18	13	12
157	-1	19	1	13
157	-9	14	10	1
158	-13	17	-9	-1
157	-14	17	-3	10
157	-20	17	26	0
158	-11	17	33	2
157	1	17	37	6
157	5	13	29	5
157	21	19	2	8
157	27	22	-23	2
158	37	19	-33	4
159	50	26	-12	3
158	48	22	19	5
158	48	22	0	7
158	31	19	3	-4
158	-9	19	13	-7
158	-69	25	19	-3
159	-67	21	48	-3
157	-32	21	45	-5
158	-12	20	42	-12
157	36	17	34	-23
158	48	17	-2	-25
158	54	19	-27	-11
158	40	15	-32	-4
157	25	13	-30	-6
158	27	14	-17	-5
158	-6	12	10	2
157	8	14	6	3
158	11	11	23	0
158	-5	11	42	-4
158	-8	14	15	-4
158	-25	18	0	-1
157	-11	21	-1	0
157	5	25	-9	12
158	5	23	-1	16
158	1	24	24	13
157	-7	21	22	12
157	-3	17	25	10
157	-10	17	41	12
157	-10	11	37	13
157	-4	13	-4	10
158	-1	22	-70	3
157	5	19	-43	-3
157	5	20	10	-8
158	5	22	3	-9
157	5	17	3	-3
157	9	17	5	10
157	6	14	14	12
157	5	17	5	3
158	4	20	-14	-2
158	1	18	-20	-2
157	5	18	-14	7
158	6	17	13	9
157	1	15	57	3
158	2	17	72	2
157	3	20	38	9
157	3	14	13	6
157	7	17	-37	0
158	5	18	-82	-5
158	3	19	-52	-4
157	7	22	4	2
158	16	19	60	1
159	14	19	104	2
157	8	15	50	-5
158	13	19	29	-15
157	10	21	36	-26
158	10	19	0	-22
158	18	21	8	-4
157	16	20	6	-7
157	10	21	7	0
157	1	19	-2	7
158	1	22	-3	-2
158	1	19	9	2
158	1	19	-1	-2
158	1	21	10	-4
158	6	18	3	-1
158	5	21	-2	1
158	5	19	-6	6
157	3	18	-6	11
158	4	18	13	16
157	4	16	26	21
158	1	16	33	13
157	0	15	-1	15
158	1	17	-38	18
157	5	13	-1	9
157	5	16	6	-3
158	7	17	-9	-8
158	5	15	0	0
158	3	17	-9	-5
157	5	19	3	-5
157	5	19	-9	-2
158	6	20	-6	-5
158	9	21	10	-13
157	11	21	17	-17
158	9	22	17	-14
158	10	21	13	-21
157	6	19	28	-15
158	3	14	16	4
158	2	17	1	6
157	3	18	6	0
157	3	17	13	4
158	4	19	16	12
157	4	15	14	15
157	1	17	-19	15
158	5	17	-24	23
158	3	15	1	20
158	3	17	7	16
157	5	18	26	9
157	2	18	27	-3
157	3	21	23	3
157	-1	19	21	5
158	-8	15	49	3
157	-4	19	65	-2
158	-4	19	29	-8
157	5	19	15	-10
158	9	22	-15	-7
157	14	23	-26	-5
158	24	26	-20	-10
158	22	24	-15	2
158	16	21	-4	19
157	11	15	0	23
158	10	14	-27	28
158	3	17	-51	31
157	-1	17	10	28
157	2	17	36	20
157	3	14	25	12
158	0	16	22	-7
158	-3	15	-15	-26
158	5	17	-18	-49
158	5	22	-11	-57
157	4	23	-6	-58
158	3	18	25	-67
158	2	17	22	-29
158	-2	15	10	6
158	-4	15	16	12
158	0	18	38	19
157	-5	19	33	16
158	-8	24	-2	15
157	-10	19	-9	18
158	2	21	0	18
157	8	20	-2	19
157	14	19	-26	18
157	17	17	0	10
157	19	11	0	12
158	27	15	-14	17
158	17	17	-7	10
158	1	16	-6	13
158	0	14	1	6
158	1	16	-8	11
157	6	15	4	14
158	16	16	53	2
158	17	21	90	-4
157	18	26	52	-1
158	18	31	12	9
158	10	23	5	1
158	7	17	-26	0
158	5	13	-51	-2
157	2	16	-28	-7
157	1	19	8	2
157	4	16	20	8
157	2	15	43	3
158	0	16	44	8
157	0	18	29	-4
158	-1	14	24	-9
157	-1	14	8	-6
159	-2	16	19	-2
157	-1	15	26	0
158	-6	18	14	2
157	-12	16	15	10
158	-15	17	22	2
158	-11	19	25	1
158	0	18	14	5
157	9	17	18	5
157	16	21	0	4
158	20	21	-10	3
158	22	18	-6	2
157	24	22	-18	-6
158	19	18	9	-7
158	7	19	23	-6
158	2	18	2	1
158	-1	18	9	2
158	4	17	7	2
157	2	17	-4	-2
158	1	19	-26	-1
157	0	17	-44	6
158	0	15	-3	-3
158	4	17	-1	0
159	8	19	-6	1
158	10	15	16	2
157	6	14	24	1
157	1	18	51	0
158	5	18	21	4
157	5	21	10	2
158	0	19	37	4
157	-4	17	29	-3
157	-11	10	15	2
158	-6	10	-56	7
158	2	18	-52	4
157	5	15	-10	7
158	9	18	-25	3
158	20	23	-25	8
158	27	24	-37	9
158	18	21	0	11
157	13	18	20	10
158	11	17	19	6
158	7	17	20	6
158	4	19	23	0
158	0	17	33	-15
157	1	19	36	-19
157	1	21	26	-17
157	3	17	-2	-22
157	3	17	2	-13
158	1	19	3	2
157	4	21	15	10
157	3	21	14	13
157	0	17	0	11
158	0	16	1	13
158	3	19	-6	-1
158	1	15	12	-13
157	1	18	10	-25
157	4	23	0	-21
158	4	22	14	-16
158	7	22	25	-17
157	7	22	22	-17
157	8	19	11	-18
157	5	17	8	-13
157	5	18	10	-10
157	4	20	16	-15
158	5	18	25	7
158	5	15	38	17
157	3	10	22	4
158	3	14	-49	8
157	5	22	-83	18
158	5	18	-10	19
157	2	17	45	23
158	0	16	59	21
158	3	18	54	15
157	4	22	37	16
157	3	22	50	13
157	5	23	-17	6
158	-1	21	-8	10
158	-18	14	8	16
158	-16	12	-16	11
157	8	15	2	14
158	22	18	-30	7
158	17	17	13	1
158	20	17	21	0
157	36	16	13	-1
158	38	21	21	4
158	21	26	-7	7
157	3	27	-17	8
158	6	24	-10	0
157	9	19	-9	-1
158	3	22	-11	-3
158	-1	18	4	2
157	-2	17	1	3
157	0	15	10	-1
158	-1	13	-3	1
158	0	17	-8	0
158	1	16	9	4
158	0	15	19	8
159	0	18	19	4
158	-1	13	-4	-2
158	1	12	-5	-3
158	4	17	23	-6
159	-1	17	57	-3
157	-11	19	43	-5
159	-7	22	26	-9
158	-4	16	27	-3
158	0	18	24	-1
158	7	18	19	6
157	12	19	1	-1
157	20	21	-10	-7
158	25	19	-15	3
158	15	22	-4	3
157	13	22	8	-4
158	13	24	14	-12
157	10	19	-9	-7
158	5	19	-23	4
158	5	16	-25	7
158	0	14	-23	1
157	0	19	-12	0
157	3	21	-2	2
158	1	23	29	3
157	4	21	33	6
157	4	21	2	0
157	3	23	17	7
157	3	17	48	9
157	2	21	17	19
158	4	19	8	24
157	2	17	30	23
158	4	16	9	28
158	6	15	9	20
158	5	16	15	11
158	5	18	19	-3
158	4	16	-2	-11
157	4	17	-16	-21
158	0	14	-14	-38
159	1	12	-46	-43
158	3	19	-28	-42
158	3	21	-31	-21
158	7	23	-39	-10
158	9	20	-26	-14
157	8	16	0	-15
158	6	16	39	-18
157	5	17	32	-20
157	4	19	30	-17
157	8	21	25	-10
158	5	21	30	-2
158	4	19	32	9
158	5	18	15	18
158	5	21	-34	22
157	6	17	-41	16
157	4	14	-9	7
157	1	16	-14	18
158	0	17	12	16
157	3	19	37	4
158	-1	17	87	7
158	1	16	122	8
157	4	19	118	10
158	5	17	62	13
158	10	19	3	19
157	9	17	28	16
158	11	12	5	15
158	9	14	-13	11
157	7	13	4	10
157	6	10	22	9
157	6	12	-28	10
158	8	18	-84	20
158	5	16	-8	14
157	3	12	-18	13
157	1	11	-32	7
159	3	17	-7	-4
157	5	18	-21	-10
157	1	17	-3	-9
158	1	23	-14	-7
158	10	21	-3	-2
157	17	20	4	0
157	9	22	8	-2
157	7	24	27	1
157	-7	22	28	0
159	-41	17	16	1
157	-42	12	-23	6
158	-20	11	-18	2
158	-8	14	-3	-4
157	17	12	-20	4
158	32	17	8	-1
157	48	17	15	-4
158	65	22	5	0
157	46	26	17	3
157	27	23	10	4
158	31	25	15	0
158	29	28	9	-2
158	9	31	0	-8
157	-4	30	-8	0
158	-6	24	1	-2
157	-5	21	-2	-1
157	-6	21	-2	-1
158	-6	19	26	-12
158	-4	17	46	-10
157	-5	15	39	-2
158	-3	18	13	3
157	-6	19	33	0
157	-4	20	50	-1
157	-2	15	46	-3
157	-2	13	6	2
157	-2	17	-25	4
157	-2	10	34	6
157	-3	11	28	8
157	1	17	-10	1
158	8	17	-23	3
158	8	19	-39	10
157	3	15	-13	4
158	2	17	-10	-3
158	2	15	-2	-16
157	1	16	-3	-5
157	7	19	-9	2
157	7	15	23	-5
158	3	16	35	-5
158	2	16	43	-3
157	-4	14	51	4
157	2	15	16	4
158	3	12	19	-4
158	0	13	22	-3
158	3	17	-5	8
158	5	19	9	9
158	6	21	6	2
157	7	25	26	-9
158	12	26	5	-1
158	13	22	-66	7
158	10	19	-86	-1
157	5	14	-54	-6
158	5	14	-28	3
158	5	15	8	2
158	8	18	66	2
158	8	22	85	3
157	7	25	88	2
158	7	19	52	7
157	6	23	-5	3
158	7	19	-6	1
157	5	16	-4	4
158	9	24	6	10
157	8	22	24	15
158	4	19	34	8
158	4	14	26	-3
159	3	15	-44	0
158	7	22	-102	0
158	10	22	-68	-9
158	7	18	-25	-7
157	5	21	-30	0
157	4	20	-9	0
158	3	19	0	-1
157	7	20	25	-6
158	5	19	85	-7
158	6	19	88	-4
157	5	19	64	-3
158	7	17	33	8
158	8	19	12	6
158	4	19	12	5
158	4	19	15	12
158	4	20	3	10
157	2	18	-5	20
157	0	15	0	19
157	-2	17	3	14
158	-9	19	6	7
158	-13	19	8	5
157	-14	17	7	9
157	-4	14	5	1
157	9	14	8	-4
158	13	15	0	-10
159	27	16	-18	-1
158	36	21	-16	-6
158	37	24	-19	-13
158	34	25	-27	-12
158	26	24	-7	-10
158	21	22	8	-9
157	12	19	6	-5
158	0	17	3	0
157	-3	17	-10	0
158	-3	19	28	-5
157	-7	17	78	-11
157	-8	10	60	0
157	-7	14	39	7
158	-3	19	44	-2
158	-1	18	43	2
158	0	24	21	4
157	-3	23	27	-2
157	-8	17	56	3
157	0	6	-5	17
158	10	10	-107	8
158	10	20	-97	5
158	4	22	-12	5
158	-1	18	-3	9
157	1	19	-2	9
158	1	16	4	11
158	3	17	-37	7
157	7	18	0	-3
158	12	22	29	-8
157	3	23	7	-17
157	3	24	6	-13
157	7	19	14	-7
158	4	15	7	-4
157	5	16	13	-4
157	5	18	4	5
157	5	18	-25	4
158	3	20	-6	9
157	3	18	-6	8
157	3	17	-26	4
158	4	16	-15	4
157	7	18	45	-2
158	9	22	71	5
158	11	21	29	7
157	8	17	34	18
158	7	17	37	20
157	5	15	6	10
157	4	15	32	7
157	1	14	31	8
157	0	17	2	0
158	1	19	20	-5
157	-1	21	61	-3
157	-6	14	33	-6
157	-21	13	6	-4
157	-21	16	38	-2
157	-11	15	36	-3
158	1	18	19	-4
158	14	19	4	2
157	23	21	-22	6
157	40	28	-39	0
157	51	29	-10	-17
158	35	25	-5	-10
158	20	22	-9	-14
158	20	17	-38	-15
157	9	18	-56	10
158	5	22	-34	11
157	4	21	-49	18
157	-2	22	-19	10
158	-2	16	-2	1
158	-5	11	35	-4
158	0	13	56	-4
157	1	16	25	2
158	-2	17	45	0
157	-2	16	39	5
158	0	20	16	4
158	1	21	20	2
158	3	25	31	2
157	5	22	33	0
158	1	14	18	0
157	2	15	12	5
157	0	17	43	2
157	0	17	66	8
158	-5	17	22	15
158	-18	14	-50	9
158	-20	10	-89	0
159	2	13	-88	-6
158	10	21	-74	-13
158	14	22	-57	0
158	16	15	-11	0
157	13	13	19	-7
158	23	17	17	-4
158	28	24	30	2
157	24	27	27	12
157	23	30	31	10
158	11	27	45	11
158	2	23	47	11
158	-4	12	14	14
158	-15	5	-4	7
157	-24	10	44	0
157	-16	13	54	-1
157	-1	17	19	-1
158	10	18	9	2
158	14	18	0	3
157	11	24	6	6
157	10	18	16	-1
158	17	19	3	-6
157	20	23	-19	-13
158	19	20	16	-15
157	14	16	49	-3
158	11	18	-8	-2
158	7	15	-13	-3
158	1	13	-31	3
158	1	14	-37	7
158	1	15	8	7
158	3	15	5	10
157	1	13	13	10
158	-3	11	3	13
158	-7	11	-3	18
158	-18	10	17	14
158	-16	9	2	11
157	-8	17	4	-5
157	0	21	23	-5
157	2	23	29	-2
158	-6	22	38	-7
158	-4	15	-4	-5
158	17	19	-39	-11
158	28	19	-8	-14
157	21	16	10	-11
158	22	18	3	-9
157	24	19	14	-12
158	24	18	16	-2
157	23	23	23	4
158	14	20	27	1
158	10	16	26	7
158	8	18	44	12
158	-4	23	48	9
158	-16	20	7	4
158	-15	24	-65	4
158	-3	25	-54	-1
158	-1	22	-19	-6
158	8	25	-23	-4
158	9	20	10	-2
158	8	17	32	-3
157	13	14	62	-4
157	14	18	53	0
157	8	19	15	2
157	3	16	19	3
158	3	18	2	7
157	-1	17	-1	9
158	-3	19	-24	3
158	5	21	-43	5
157	5	18	-21	0
158	1	18	15	8
158	-3	16	49	11
157	-10	14	47	6
158	-3	18	40	3
158	12	15	82	2
158	10	17	104	-5
158	1	22	16	-6
157	-3	23	-39	7
158	0	25	-22	0
158	3	19	-28	3
159	4	14	-28	1
157	10	20	-17	-1
158	10	19	2	0
157	8	17	7	-2
157	3	19	-12	-3
158	4	18	-29	-2
158	3	16	11	6
157	5	17	29	-1
157	3	19	-17	-9
158	4	16	-8	-13
157	10	17	4	-16
158	12	15	-19	-11
157	12	18	-13	7
157	10	21	2	19
157	9	19	10	18
157	7	18	29	7
157	3	18	56	1
157	0	16	57	0
158	0	17	14	-3
158	6	22	-31	0
158	8	18	11	-6
157	-1	17	10	-3
158	-8	18	4	-3
158	-7	19	31	-4
158	-2	19	0	4
157	1	12	2	6
158	8	15	-24	2
157	15	19	-9	-8
157	23	24	13	-7
158	17	21	8	1
157	-3	18	32	-3
158	-2	16	28	-7
157	3	17	29	-4
157	0	14	16	4
157	-2	14	0	10
157	-4	18	-36	10
158	5	19	-30	6
157	14	24	-1	2
158	11	23	0	7
157	5	22	20	10
157	-2	19	43	11
158	1	12	51	7
157	14	15	-27	10
157	22	25	-96	15
157	26	22	-30	2
158	26	18	16	7
158	28	21	32	7
158	23	14	67	4
157	14	18	39	9
157	-3	17	30	6
158	-8	13	31	1
157	-3	13	-10	-15
157	1	12	-81	-10
158	3	24	-100	0
157	-6	22	-27	-6
157	-12	17	0	-2
159	-5	19	20	-4
157	-1	16	59	0
158	0	17	49	-1
158	-1	18	54	1
157	-1	14	42	11
158	-3	17	22	8
157	1	21	27	6
158	8	18	19	7
158	5	15	18	3
158	0	14	26	3
158	-1	14	26	0
157	-2	22	13	2
158	-1	26	3	-4
157	0	22	9	-6
158	4	20	-13	-1
157	3	22	-20	-6
157	1	22	2	-1
158	5	20	-7	-2
157	6	19	-27	-9
158	1	21	-6	1
157	-14	16	9	8
157	-18	11	-4	12
158	-14	8	10	4
158	-4	15	17	0
158	11	19	6	3
158	20	21	4	1
158	32	20	10	-2
157	35	19	2	-2
158	36	25	-15	-6
158	27	23	-18	-7
157	13	17	-8	7
157	11	15	28	13
158	13	15	40	7
157	5	17	45	10
157	3	16	42	7
158	1	18	24	4
157	0	17	-20	2
157	5	21	-47	-7
157	2	18	3	-21
157	3	17	9	-14
158	1	19	-7	-4
157	2	18	-6	-5
157	1	15	-11	-3
158	1	16	1	-3
158	5	22	19	0
157	10	23	39	-9
158	8	18	16	-16
158	5	19	8	-21
157	6	18	13	-12
157	4	16	-9	-4
158	1	15	5	2
157	0	13	6	15
158	-3	17	3	15
158	1	16	20	23
157	4	14	12	28
158	-1	18	13	18
157	0	18	30	10
158	0	19	29	11
158	2	19	19	14
158	8	19	16	10
157	19	19	13	9
158	15	22	24	4
158	4	17	46	-10
158	4	15	38	-17
158	3	13	9	-17
157	4	16	-21	-21
157	6	25	-50	-13
158	8	29	-16	-12
158	8	19	2	1
158	4	17	-49	19
158	5	18	25	15
157	1	9	71	17
158	4	13	6	-1
157	3	19	-16	-6
158	8	20	-38	9
158	10	24	-27	10
158	9	21	-43	18
157	7	19	-58	18
157	5	21	-18	4
158	4	20	21	-4
158	4	18	42	4
157	5	16	-6	6
158	7	21	-16	7
158	7	24	15	12
158	4	18	60	11
158	0	13	98	18
158	0	13	69	11
158	-6	12	74	-1
158	-21	11	45	-7
157	-28	13	27	-13
157	-3	16	5	-19
158	12	17	-12	-29
158	14	18	1	-32
158	19	21	-34	-22
158	17	21	-22	-8
157	23	18	-15	-9
157	27	23	-4	-8
157	26	27	1	8
157	17	23	2	10
158	7	26	7	13
158	-3	24	-6	12
158	-9	19	-1	13
157	-5	18	-8	12
158	-2	18	-8	12
158	4	16	14	18
158	13	21	42	10
158	20	15	35	6
158	17	18	-30	7
157	7	24	-57	5
158	4	19	3	4
157	3	17	2	11
157	2	15	-13	14
157	-2	11	3	3
158	-10	12	-6	-19
159	-18	13	20	-20
157	-8	12	28	-6
158	1	16	18	-8
157	11	17	2	2
157	11	17	-11	2
158	7	15	0	3
157	12	10	26	13
157	20	18	13	6
157	23	19	14	-2
158	20	20	24	-3
157	12	19	28	-2
158	12	20	37	1
158	12	21	30	-8
157	5	20	43	-9
157	5	17	15	-1
157	1	17	-3	8
158	0	16	15	8
157	-5	11	4	3
157	-5	17	1	6
158	1	17	6	0
157	1	21	7	2
158	0	19	9	12
158	0	15	11	13
157	-1	14	5	3
159	-3	17	0	-4
158	-11	17	-24	-5
157	-16	19	-59	-8
157	-9	23	-34	-5
157	7	22	-9	-4
158	22	21	9	-1
158	20	18	18	3
158	14	15	6	6
158	23	19	19	8
158	20	23	21	4
158	10	20	23	12
158	8	19	21	12
157	7	12	24	12
157	3	11	35	4
158	3	25	15	-9
157	8	22	13	-5
158	5	16	22	-3
158	4	18	32	-1
157	3	15	42	-6
157	0	15	47	-20
157	0	15	32	-30
157	1	15	-17	-13
158	1	14	-18	-7
158	-2	11	24	-8
158	-1	17	15	2
158	3	19	-47	1
158	3	19	-72	-5
157	3	24	-55	7
157	5	24	-60	17
157	-1	19	-18	13
158	-9	21	8	14
157	-7	19	15	11
157	-1	18	60	9
157	2	16	79	10
158	6	14	44	2
157	17	21	1	2
157	26	23	20	10
158	19	21	36	6
157	14	23	18	0
157	21	29	-21	-11
158	17	22	-26	-21
157	9	19	-2	-7
157	8	24	-13	-2
158	3	23	-1	0
158	3	22	16	7
158	4	19	14	9
158	1	18	-2	15
158	4	22	-15	4
158	4	18	12	0
157	3	13	17	-1
157	3	17	14	4
157	3	19	33	6
158	-3	24	53	8
158	-6	14	30	17
157	0	1	-61	26
158	7	10	-100	4
157	3	21	-37	-8
157	-4	17	-23	6
158	-20	17	-1	-11
158	-17	17	41	-9
157	4	19	69	-6
157	12	23	92	0
158	9	23	34	7
157	11	22	12	1
158	21	19	-2	4
158	28	21	8	-5
158	22	19	24	2
158	16	15	9	1
158	15	14	18	-4
158	9	19	4	2
158	3	19	12	0
157	-1	19	3	0
157	1	19	-3	-1
158	3	15	-20	-2
157	3	19	-22	2
158	5	18	-3	7
157	7	18	2	7
158	7	18	19	2
158	3	13	5	2
158	3	15	-2	-2
158	2	18	-16	-14
158	0	17	-11	-10
157	-3	14	8	0
157	-3	17	4	1
157	-3	15	10	6
158	-2	17	12	8
158	0	15	14	7
157	-2	17	10	13
157	-5	16	14	14
157	-4	18	22	15
157	9	22	7	14
157	14	19	-4	8
158	9	15	23	8
157	12	13	77	2
157	12	18	83	0
158	0	18	34	-1
157	-7	17	20	-6
157	-14	15	27	-21
157	-13	18	25	-16
157	1	22	-1	-22
157	8	17	12	-26
158	13	18	60	-21
157	30	17	39	-21
158	46	23	-49	-6
157	44	30	-119	8
158	26	22	-24	2
157	16	15	-8	1
158	18	22	-49	7
158	7	17	0	5
157	1	19	-9	7
158	2	21	1	12
158	-4	18	-7	11
157	-2	19	4	7
158	-4	18	16	11
157	-3	19	15	14
157	-4	17	10	16
157	-3	21	-4	18
158	-1	24	25	22
157	-1	20	32	20
157	-3	15	20	23
158	-3	13	-20	11
158	1	14	-23	-2
157	2	15	17	0
157	3	18	34	-1
157	1	19	23	4
157	2	21	3	-2
158	1	19	-42	2
158	2	18	-66	9
158	3	19	-20	-6
157	2	17	-32	-7
158	0	14	-11	-15
158	1	15	28	-33
157	3	19	38	-36
157	6	15	69	-23
158	7	17	21	-10
157	7	18	-7	8
157	6	18	-12	11
159	7	22	-3	10
157	7	19	51	3
157	9	17	24	-6
157	10	18	26	-5
158	10	17	53	-10
158	7	19	47	-9
157	10	19	63	-1
157	7	17	46	4
157	5	18	43	8
158	4	17	17	11
157	5	18	-42	16
157	5	21	-22	19
157	8	18	8	14
158	11	17	-13	9
158	7	17	-5	11
157	2	17	-8	11
158	-10	17	-7	6
158	-31	14	-2	7
158	-18	14	-9	13
157	3	16	13	12
157	5	17	1	7
158	11	14	-35	8
157	14	10	-53	4
157	27	15	12	6
157	31	19	65	1
157	17	25	57	-14
157	8	24	68	-7
159	9	22	-6	-7
157	3	25	-24	-8
157	-1	25	1	-14
158	3	26	-22	-11
158	17	22	5	3
158	14	17	-1	4
157	-2	16	-12	0
157	-4	19	1	-6
157	1	19	-2	6
158	3	14	-1	7
157	4	15	-6	4
158	13	15	5	-4
158	20	19	7	-7
158	22	18	20	-9
158	12	20	44	-13
158	7	18	28	-11
158	8	13	6	-11
158	3	14	1	-1
157	-1	17	5	-1
158	3	21	6	4
157	0	19	21	6
158	-1	18	57	3
158	-2	19	59	2
157	0	23	-9	6
157	1	21	-60	15
158	3	14	-3	13
157	0	14	-6	11
158	0	19	-49	8
158	3	22	-9	19
157	1	21	5	19
158	2	18	-2	8
158	1	16	-7	10
158	2	17	-13	2
157	-7	15	4	-12
158	-13	14	25	-16
158	-5	14	8	-6
157	2	18	-17	-1
158	8	21	5	7
158	14	15	22	3
158	13	17	36	7
157	14	19	49	1
157	14	21	51	-5
157	16	21	53	-6
158	15	19	3	-13
158	9	21	-4	-10
158	12	19	5	-8
158	10	24	-11	1
157	8	25	22	-1
157	3	19	31	-2
158	-8	14	23	-2
157	-15	15	0	-6
158	-8	17	-20	1
157	-4	15	-21	4
157	1	18	-9	5
159	7	17	12	10
158	8	15	17	14
157	18	18	33	16
158	23	17	31	12
157	22	17	20	4
157	17	16	-6	-6
157	12	14	-27	-3
158	15	18	-34	7
157	10	18	3	4
157	3	17	20	10
157	2	20	22	13
157	-3	19	41	12
158	-2	16	14	7
157	-1	17	-13	1
158	1	21	-21	6
157	0	18	-1	9
158	0	11	-16	19
158	1	15	-7	11
157	-1	22	4	10
157	2	19	-18	24
158	-3	17	-18	23
157	-19	18	-17	12
157	-34	10	-17	-3
157	-28	13	-48	-16
158	-10	17	-15	-28
158	-3	14	22	-41
158	0	13	9	-32
158	11	17	0	-28
158	50	26	70	-41
157	75	34	163	-43
158	53	38	110	-27
157	24	36	13	-1
158	25	24	39	1
158	17	19	41	-6
158	3	20	-19	-3
157	0	19	-10	0
158	-3	20	-12	9
157	-2	17	-1	15
158	-2	20	1	10
158	-2	15	0	10
158	1	18	19	13
157	0	18	33	8
157	-3	15	31	10
158	-5	15	5	16
157	-1	14	3	16
157	0	17	-4	14
158	1	17	-6	12
158	-1	17	-8	9
157	-2	14	-20	10
157	-3	16	-22	13
157	-1	14	-22	9
158	4	19	-30	13
157	3	19	-27	15
157	3	17	-13	18
157	5	19	-16	22
157	7	17	-9	13
158	5	18	-10	22
158	6	17	-4	20
157	5	17	16	18
158	4	15	19	27
157	2	14	25	19
158	4	15	39	-10
157	3	14	37	-36
158	1	19	-11	-39
157	3	18	0	-49
158	-1	16	32	-48
157	0	16	15	-33
158	8	21	17	-28
157	13	21	8	-17
157	15	17	11	-5
158	7	16	1	1
158	5	23	1	4
158	3	21	5	2
157	3	19	-3	9
158	9	23	8	13
158	9	24	6	11
158	10	21	25	7
157	8	17	37	5
157	6	14	19	-2
158	8	16	4	-5
158	6	17	2	-1
158	7	19	-11	7
158	9	19	3	14
158	7	19	39	9
158	3	18	15	11
157	3	14	-38	25
157	10	13	-57	21
157	8	17	25	11
158	5	15	44	14
158	-3	15	29	8
158	-9	20	49	4
157	-3	19	17	-8
158	1	16	-20	-9
157	7	19	-61	1
157	10	18	-19	0
158	3	17	0	4
158	4	20	-12	9
158	5	24	16	8
158	-1	20	-3	0
158	2	15	1	-6
157	2	11	7	-11
158	3	19	13	-12
158	10	23	8	-4
158	1	18	3	0
157	1	14	17	-2
158	13	14	9	-7
158	8	15	10	0
158	-1	15	24	8
157	2	17	68	8
157	12	19	56	6
158	34	30	-45	11
158	35	36	-41	-2
157	19	27	60	-13
157	17	19	33	4
157	23	18	0	-2
159	9	19	13	-1
158	-2	15	9	-4
157	3	13	51	-7
157	-1	11	39	-6
157	-4	13	15	-2
157	-5	17	23	-1
157	-7	19	35	1
158	-3	18	42	0
158	-4	15	0	-8
158	-2	17	-81	-7
158	2	18	-62	-7
157	-3	17	-4	-6
157	-3	17	-16	-2
157	0	20	-15	0
158	0	17	-5	4
158	-4	13	-2	10
158	1	18	-15	11
157	1	20	16	13
157	0	19	48	16
157	2	21	33	-5
157	2	21	52	-9
158	4	23	84	11
158	4	22	36	14
157	5	13	-14	18
159	8	13	-29	13
158	10	19	-31	3
158	9	17	-12	0
157	13	22	-20	-3
158	17	24	-5	4
157	16	18	-8	8
158	8	19	-3	9
158	5	16	12	10
158	7	15	6	6
157	5	19	10	-3
157	7	19	0	-9
157	5	17	5	-5
157	5	19	4	-5
158	3	17	10	-5
158	3	15	-5	-2
157	0	17	-17	0
157	3	18	-8	1
157	3	18	5	0
157	5	18	33	-2
158	7	17	32	6
158	6	17	10	12
157	3	13	-1	9
158	5	13	-11	3
158	13	14	0	2
158	10	14	2	-2
157	2	17	-13	-7
158	0	19	25	-3
157	0	17	28	-6
157	1	18	17	-7
158	5	16	22	-6
158	8	14	12	-6
157	4	18	26	-1
157	3	14	38	3
157	5	17	24	3
158	8	18	0	5
158	8	16	31	4
157	9	16	23	-3
158	10	18	-2	1
158	7	17	0	7
158	5	17	-6	11
157	6	18	-25	9
158	3	19	-34	15
158	4	24	9	19
157	2	24	53	18
157	3	20	97	13
157	2	15	29	6
157	3	13	-92	-8
157	4	16	-82	-17
158	8	14	-37	-9
157	5	20	-27	-21
158	5	22	-4	-8
157	0	18	9	-6
157	-23	21	30	-2
158	-48	17	77	-7
157	-38	19	48	-17
158	-4	25	18	-4
157	12	24	23	-9
158	16	17	25	-6
158	32	19	25	-6
158	58	21	1	4
157	73	24	-13	-5
158	51	30	-11	-8
158	23	26	5	0
157	16	25	23	7
158	14	23	35	16
157	7	19	19	13
157	3	17	-7	7
157	3	19	-1	6
157	3	21	0	11
158	4	19	0	9
158	-1	22	0	11
158	-5	21	16	11
159	-5	22	26	7
157	-6	18	26	3
158	-10	15	-15	9
158	-7	17	-57	14
158	-5	14	2	4
157	-6	12	27	4
158	-3	17	28	0
158	-4	18	43	-8
157	-5	21	10	-9
158	-3	13	10	-4
158	0	9	8	0
157	1	15	8	7
158	0	15	15	7
157	-2	19	-1	4
158	0	21	-23	9
157	8	17	-38	11
157	10	19	-17	9
157	5	24	15	-8
158	0	23	35	-10
158	5	24	22	-12
157	8	24	8	-7
159	9	19	-11	2
158	10	17	-15	-6
158	8	17	1	6
158	10	15	-12	10
158	5	16	-33	7
158	3	14	-21	3
158	-1	10	15	-10
157	-3	12	22	-16
157	1	17	22	-17
157	5	19	46	-8
159	2	19	84	8
157	2	14	92	11
158	1	13	37	4
157	5	19	-62	-2
157	6	24	-90	-4
158	8	25	-48	-1
157	12	21	-35	22
157	10	14	2	32
158	4	9	35	23
158	5	8	49	20
158	4	6	73	0
158	9	15	79	-2
157	10	14	24	2
157	2	17	2	-6
158	1	22	22	-19
157	1	19	21	-30
158	4	20	5	-19
157	12	21	-3	-17
158	16	25	-9	-5
157	11	24	-15	0
158	0	21	-8	10
158	1	19	-19	24
157	8	23	-31	24
157	19	21	-26	28
157	10	16	0	21
158	3	15	25	17
158	7	12	43	17
158	1	17	22	10
158	3	14	5	-6
157	0	12	-11	-23
157	4	18	-27	-31
157	7	16	-11	-34
157	4	19	-24	-32
158	4	21	-12	-22
157	1	17	25	-14
158	5	17	48	-13
158	8	17	20	3
157	5	15	12	12
158	5	16	29	8
158	2	14	5	7
157	3	12	12	12
157	3	17	-10	7
158	-8	17	-7	9
158	-25	18	6	18
157	-34	17	-4	13
158	-35	15	-7	7
158	-11	14	-2	2
158	11	16	8	0
158	27	18	25	-4
157	48	22	38	-2
157	57	26	21	3
158	59	23	15	0
157	47	23	34	-3
158	31	19	17	-2
157	26	24	-51	9
157	17	26	-51	9
158	1	19	4	3
158	-4	22	2	3
158	-5	21	37	6
158	-7	19	49	9
157	-8	22	24	7
158	-12	17	41	0
157	-8	18	13	-2
158	-5	23	10	-2
157	-7	18	10	-6
157	0	19	-26	3
157	-1	19	-8	10
158	-16	15	2	6
158	-16	15	-25	9
157	-9	15	-15	0
158	-8	15	10	-3
157	0	15	4	-1
159	6	14	3	0
157	11	17	8	5
157	17	19	0	11
158	11	19	9	14
157	8	17	43	9
158	13	18	60	2
157	14	18	29	1
158	7	24	-3	-4
157	2	24	2	-16
157	3	18	13	-16
157	3	19	-5	-6
157	6	14	-22	4
157	5	17	-13	-1
157	8	21	13	-11
157	4	19	29	-6
158	3	18	20	-6
158	3	19	4	-13
158	2	18	-10	-1
157	6	19	-20	2
157	7	18	-7	2
158	7	16	-11	11
158	4	15	2	13
157	6	16	34	8
157	5	16	36	1
157	5	17	40	7
157	5	16	31	3
158	4	14	25	8
157	7	18	21	0
157	10	21	16	-8
157	12	17	2	-1
159	14	14	-6	1
158	9	12	-17	7
157	3	15	-27	1
158	3	17	-5	9
158	-2	17	-6	12
157	-1	20	-11	16
157	2	22	22	28
158	6	22	38	32
157	3	19	32	22
158	1	17	21	0
158	0	19	4	-7
157	-1	18	4	-3
157	5	22	-8	-12
157	16	30	2	-14
157	23	27	17	-12
158	13	18	-5	-22
157	8	21	-32	-28
157	0	19	-11	-34
157	-6	19	15	-25
158	-7	20	14	-18
157	-4	17	18	-17
157	2	19	-9	-8
158	5	15	-35	0
158	15	13	-60	12
157	22	12	-23	21
157	16	12	41	24
158	11	14	46	20
158	9	18	35	22
158	11	21	30	19
158	8	19	33	16
157	2	18	14	19
158	1	16	-21	13
158	5	22	-51	6
157	8	23	-37	-16
157	5	10	20	-21
157	0	11	92	-20
158	0	14	132	-30
157	1	17	111	-20
158	-2	20	53	2
158	3	16	-23	9
158	1	16	-27	0
158	-3	18	-54	3
158	0	17	-47	-2
157	0	20	-26	7
158	5	21	-30	11
158	3	21	5	3
158	3	18	-4	9
158	7	15	8	7
157	7	18	15	7
158	2	21	31	11
158	4	21	34	12
157	6	19	15	7
158	2	20	20	5
157	7	17	3	4
158	5	18	-8	7
158	7	21	-19	11
157	7	19	-11	15
158	5	17	33	13
157	1	10	30	4
157	3	18	-45	17
158	6	25	-86	8
158	1	16	-26	-4
157	0	19	25	-1
158	1	18	27	-6
158	4	13	12	-1
157	5	19	21	3
157	10	18	40	7
158	15	19	35	-5
158	15	22	41	-13
157	17	24	29	-14
158	15	21	6	-14
158	8	22	-13	-1
158	-3	21	-13	10
158	-13	18	-11	14
158	-6	19	-6	12
157	-1	19	9	9
157	4	18	9	10
157	11	17	21	7
158	8	16	18	0
157	17	20	16	-10
157	24	23	23	-18
158	26	19	9	-18
157	22	20	-7	-14
158	16	18	-21	-7
158	11	21	-19	-8
157	10	25	-1	-3
157	0	15	12	-1
157	0	14	19	-5
157	1	10	30	-16
157	-4	6	26	-30
157	0	15	20	-11
157	-1	12	-7	5
157	-1	11	-41	9
158	-1	14	-18	18
157	1	20	-2	10
157	3	17	-10	10
158	3	15	5	13
158	0	16	13	11
157	-8	14	27	7
157	-12	18	39	0
158	-15	17	21	-4
157	-15	21	26	-3
158	-5	18	27	4
158	3	16	4	14
158	14	24	-19	23
158	17	24	-16	14
157	16	20	10	1
157	15	21	25	-4
157	19	18	52	-4
157	23	19	43	-4
158	26	20	29	-7
157	18	20	26	-1
158	10	22	27	6
157	15	19	14	9
157	12	20	-32	15
158	3	23	-64	10
157	-4	17	-64	9
158	-4	18	0	11
158	-1	20	9	10
157	-2	20	-15	8
158	1	19	17	9
158	-1	19	4	11
158	-1	17	18	-5
157	-1	20	48	-16
157	6	19	26	-17
157	8	17	26	-18
157	4	17	5	-7
158	5	17	-13	-2
158	5	16	18	4
157	5	19	19	8
158	3	17	16	0
158	2	17	19	2
158	3	17	9	2
158	3	13	10	3
158	1	14	15	2
158	0	12	3	2
158	1	13	-10	-1
157	4	21	11	-12
158	7	18	27	-4
158	6	15	28	7
157	1	14	31	1
158	0	14	12	6
157	5	19	-39	14
158	8	22	-58	17
158	9	16	-23	8
157	8	16	-15	6
158	11	17	-11	7
158	10	19	-26	5
157	12	24	-47	11
157	12	18	-22	11
158	11	17	9	12
158	10	17	43	-4
157	5	18	96	-19
158	5	28	90	-25
158	4	25	39	-23
158	4	19	57	-22
157	3	15	94	-23
158	1	14	91	-23
158	2	17	-16	-12
157	1	19	-64	-2
158	-1	14	2	-2
157	4	19	-12	4
158	7	24	-18	1
158	2	13	-33	-4
158	3	18	-45	5
157	8	21	-36	11
157	7	22	-30	6
157	5	23	-9	7
158	3	19	-31	13
157	3	19	-9	13
158	0	18	15	4
157	-2	18	17	1
158	-7	20	29	5
157	-2	17	31	9
157	-1	12	24	13
158	4	12	7	11
157	8	13	25	11
158	13	20	6	15
158	27	24	-6	12
157	25	23	-16	8
157	18	24	-7	4
157	12	21	42	2
158	11	17	40	0
157	4	17	43	-1
157	-1	17	27	-5
159	0	15	-7	2
157	-2	19	-15	6
157	-1	24	-2	2
158	5	21	6	-4
158	10	22	6	-2
158	1	19	0	1
157	5	23	-22	-2
157	12	25	-31	-1
158	5	22	-21	-1
158	1	16	-7	2
158	-3	16	-13	4
158	-15	17	-22	-2
157	-22	20	-14	3
158	-6	22	-5	5
157	-1	17	1	10
158	5	19	23	19
157	5	11	49	20
158	5	2	52	9
158	23	7	40	-14
158	35	21	27	-18
157	30	28	70	-22
158	15	25	131	-22
157	10	19	73	-20
158	11	21	23	-17
158	8	19	48	-9
158	3	19	-5	3
158	1	17	-24	15
157	0	10	-62	18
157	-1	12	-66	10
158	1	16	-5	4
158	-1	13	-24	2
157	-2	21	13	-7
158	0	24	42	-9
157	-1	16	58	-17
158	3	17	38	-2
158	3	13	31	10
158	4	15	24	2
158	8	21	-46	12
158	7	21	-59	10
157	5	19	-25	11
157	8	17	32	9
157	9	17	-17	4
157	8	18	-28	3
157	4	21	-5	14
157	5	19	-13	28
157	7	17	5	27
158	6	14	6	23
158	1	15	15	9
158	4	20	-20	9
158	1	21	-9	-6
158	-17	17	16	-15
158	-33	17	9	-25
157	-15	18	16	-36
158	2	15	0	-34
157	8	16	3	-23
157	13	13	4	-6
157	12	17	-26	-6
157	25	17	-24	0
158	30	19	13	-4
157	20	21	34	-6
157	22	18	6	-3
158	26	24	-73	5
158	31	33	-48	9
157	21	27	60	9
158	11	24	43	15
158	5	22	-16	16
158	7	21	-12	23
157	2	16	65	21
158	-5	9	130	20
158	-10	11	107	13
158	-6	14	34	9
157	-5	15	38	7
158	-5	11	53	-9
158	-1	14	-37	-15
157	3	21	-43	-25
158	-3	21	-41	-25
158	3	23	-62	-18
158	11	22	-27	-4
158	1	21	-20	7
157	-4	18	18	13
158	1	16	39	10
157	-1	15	34	5
157	2	19	47	6
157	1	18	27	4
157	1	19	-5	4
157	1	18	25	7
157	-7	15	29	7
158	-10	18	5	2
158	-4	17	6	1
158	3	18	-4	2
158	7	19	-17	2
157	16	21	-24	-5
158	19	19	12	1
158	22	17	4	6
157	24	19	-9	12
157	24	11	-3	16
157	15	8	-26	5
158	12	14	6	0
158	13	13	19	-5
157	6	17	4	-7
158	2	21	10	-4
157	1	21	12	2
157	-1	17	14	7
157	-1	16	25	8
157	-2	18	5	9
158	0	18	-46	2
158	-1	17	-29	0
157	-1	14	-4	-3
158	5	22	-11	3
157	9	24	13	4
158	10	19	52	3
158	5	21	54	6
157	4	19	24	3
158	5	17	6	4
158	1	15	22	1
157	1	19	9	-2
158	-1	19	-24	3
158	2	25	-24	6
157	5	23	-23	12
157	5	21	15	9
157	3	15	40	14
158	9	14	29	15
158	5	15	16	8
157	5	16	-2	-1
158	8	17	9	-16
158	0	18	-11	-20
157	3	19	-40	-21
158	4	15	-35	-30
157	5	17	-20	-37
157	4	15	-23	-26
158	3	20	8	-11
157	8	21	102	3
158	14	18	176	13
158	12	26	95	6
157	7	24	31	10
158	-3	22	79	10
158	-12	23	49	9
158	-12	21	8	19
157	-3	15	-35	16
158	-1	16	-51	3
158	1	15	-66	-8
158	5	15	-74	-12
158	18	19	-48	-21
158	29	20	-26	-27
157	26	21	10	-25
157	16	24	19	-17
157	16	23	18	-3
157	16	22	-9	2
158	9	21	-1	11
157	1	14	15	12
158	3	16	12	4
158	-2	14	17	7
158	-3	23	3	8
158	0	22	20	6
158	0	19	-27	15
157	3	21	-39	15
158	1	12	27	9
157	1	9	19	8
158	3	16	-4	3
157	1	18	-33	9
158	3	13	-23	15
157	1	18	-11	21
157	0	19	5	20
157	-2	15	59	20
157	0	11	78	9
157	3	14	33	-3
157	3	24	-60	0
157	7	22	-4	-4
157	7	17	43	1
157	3	22	9	1
158	5	22	35	4
158	10	22	24	11
157	19	20	44	9
157	18	14	39	13
158	-5	12	-1	9
157	-9	13	-36	-2
158	-5	18	-60	-4
158	1	22	-22	6
158	11	22	-1	3
157	15	19	10	-4
158	15	19	27	-1
158	15	17	43	-2
157	11	15	40	-5
158	5	22	3	-4
157	1	15	-20	-13
158	3	18	0	-15
157	8	22	7	-8
157	4	18	-7	-11
157	3	22	-9	-9
158	6	19	-11	4
157	4	15	-2	11
158	2	14	9	13
158	3	14	27	12
157	3	13	39	13
157	1	17	33	4
158	4	18	16	0
158	4	15	16	-7
158	3	16	0	-15
158	1	18	-23	-6
158	-5	17	29	-2
158	-12	11	64	-1
158	-5	14	71	3
158	1	17	35	6
158	4	17	-13	2
157	12	17	-2	-6
158	23	24	-6	-16
157	23	23	15	-5
157	16	17	32	2
157	12	21	10	0
158	11	17	-5	0
158	9	19	-27	-4
158	4	23	-14	8
158	1	19	-27	4
158	-2	16	-49	5
157	-2	17	-56	7
157	3	17	-35	7
157	3	15	41	2
157	1	15	63	2
158	3	15	47	8
157	1	21	47	8
158	5	29	61	10
157	5	26	54	-4
157	4	24	-11	-5
157	3	13	-29	-6
158	2	18	-19	-2
158	0	19	4	17
158	-1	15	2	25
158	7	23	-39	18
158	8	21	-26	11
157	8	22	-31	3
158	9	23	-43	0
158	6	23	-5	4
158	5	21	28	0
157	4	19	37	-10
157	6	15	15	-18
157	7	11	-11	-30
158	5	18	6	-50
158	3	15	15	-45
157	5	16	4	-17
158	5	17	5	2
158	5	14	58	-1
158	5	17	26	4
158	9	21	-22	9
158	7	20	-6	8
157	6	21	-48	8
158	8	19	-3	10
157	8	18	29	12
157	5	17	13	6
158	3	17	46	12
157	3	22	32	16
158	1	22	35	16
157	0	18	57	17
157	4	14	6	10
158	8	16	-79	10
158	9	18	-61	2
158	9	19	25	-1
158	11	15	74	4
157	7	13	71	9
157	3	13	29	11
158	8	17	-6	8
158	6	22	-14	13
158	5	19	4	7
158	3	18	1	13
158	3	19	17	19
157	3	17	10	18
158	4	19	6	16
158	5	22	17	2
158	5	17	20	-13
157	-1	14	37	-27
158	-1	18	21	-26
157	5	21	11	-18
158	8	22	-11	-6
158	9	15	-11	4
158	4	6	-21	12
158	1	7	-48	11
157	3	18	-35	-13
157	4	25	-17	-18
158	5	24	1	-13
157	3	19	21	0
158	3	18	33	8
158	7	23	0	7
158	16	21	-4	7
158	14	19	10	7
157	4	19	19	4
157	8	22	27	-3
158	11	24	13	-1
157	9	21	32	-14
158	3	15	41	-12
158	0	18	21	3
157	2	18	-27	12
158	-2	18	-15	22
158	-1	15	67	18
157	2	14	24	7
157	3	19	4	0
157	5	21	3	-8
158	5	19	-32	-6
158	3	18	-26	-5
158	-3	18	-21	-17
157	-6	17	20	-20
158	-5	23	22	-17
157	-2	22	10	-1
157	4	15	12	-2
159	6	12	1	-6
157	15	15	-6	1
158	25	23	-14	11
158	21	22	13	16
158	13	21	9	13
158	12	21	-7	20
157	15	15	-14	11
157	5	17	-6	10
158	1	15	12	13
157	-1	14	-16	11
158	2	17	-9	11
158	-6	17	43	2
157	-20	13	20	4
157	-16	19	-23	0
158	-4	19	27	-9
157	1	16	31	-7
158	7	19	16	-8
157	9	17	23	-7
157	15	17	9	-2
158	22	18	19	-6
157	25	18	40	-2
158	22	19	78	2
158	18	17	59	-2
158	13	16	18	2
157	11	19	17	6
158	8	17	18	6
158	0	15	1	8
158	-2	13	-39	2
157	-3	13	-47	7
158	-1	14	-28	8
157	-1	14	-32	2
157	-3	20	-28	-5
157	-2	21	-18	-11
158	-1	18	-9	-7
157	1	19	-27	-1
157	0	21	-27	7
157	3	21	17	6
158	3	21	35	7
157	2	22	58	7
157	1	16	89	-4
158	4	17	33	1
158	4	25	-15	8
159	4	26	5	0
158	5	22	-2	7
157	5	15	-18	15
157	5	10	-15	4
158	2	12	18	-1
157	2	10	38	-4
158	6	15	35	-20
157	8	25	45	-23
157	11	24	18	-15
158	11	25	20	-11
158	7	22	6	-2
158	7	21	-19	0
159	5	18	-8	12
157	5	19	-22	23
158	5	22	-15	22
157	7	17	8	26
157	1	15	6	21
158	0	15	-7	6
157	3	17	-12	-6
158	3	18	-12	-21
157	7	18	31	-41
158	9	15	61	-42
157	8	14	17	-20
158	14	17	-4	4
157	17	21	-21	6
157	1	17	-28	5
158	-4	17	-27	4
157	3	16	-21	2
158	3	19	-11	5
157	6	18	-9	8
157	7	17	22	3
158	10	15	58	0
157	8	13	70	5
157	1	17	52	8
157	-3	16	66	15
157	-5	13	54	13
157	-3	14	-56	15
157	-4	24	-77	16
158	-2	21	0	9
158	1	14	10	13
158	16	15	-9	6
158	24	18	-18	1
157	19	26	-5	16
157	16	19	3	15
157	14	20	12	11
158	11	19	0	6
158	8	19	8	-1
157	5	18	53	-2
158	4	17	-11	-1
157	4	18	0	-2
157	1	17	48	-6
157	0	19	38	-10
158	0	16	50	0
158	-1	12	-20	9
158	0	13	-28	0
159	-1	18	8	0
157	2	22	34	2
158	2	19	20	4
157	0	20	6	6
157	-13	21	14	3
157	-22	23	-23	1
158	-10	19	-19	5
158	3	19	-11	2
158	9	21	-16	-2
158	16	20	9	4
157	18	21	55	3
157	28	20	64	-13
158	29	20	40	-20
157	23	23	-30	-12
158	18	17	-43	-17
157	13	16	17	-16
158	9	17	13	-10
158	4	13	-10	-8
157	1	21	-1	-6
158	-1	19	-1	-2
158	0	18	-64	16
159	3	25	-78	14
157	-1	23	-2	0
158	-17	17	-7	10
157	-20	17	-2	13
158	-9	15	24	5
157	-2	17	49	10
157	1	17	108	0
157	8	16	90	-9
157	7	17	47	2
157	18	18	15	6
158	26	22	-5	11
157	26	22	10	9
158	26	19	-6	1
158	16	17	-11	3
158	10	18	-5	8
158	8	16	7	1
158	-1	13	31	-1
157	1	14	23	2
157	3	15	10	-1
157	3	23	13	-1
157	4	23	6	7
157	3	18	-1	18
158	-2	19	-5	13
159	-4	21	-20	4
158	-5	19	4	0
158	-5	19	42	-6
157	-14	16	1	-5
157	-15	21	-70	11
158	3	16	-33	9
157	11	10	9	0
158	14	18	-22	-9
157	14	13	-10	-6
157	16	12	-34	-7
158	18	19	-19	-21
158	18	18	8	-18
158	15	21	5	-7
158	17	22	36	-12
157	16	20	15	-10
157	5	19	20	-1
158	0	19	26	0
157	0	16	28	3
158	-1	14	38	11
157	0	17	29	17
157	1	19	31	16
158	2	16	26	17
157	0	15	19	12
157	0	21	2	2
158	0	22	-1	0
158	1	18	10	-2
158	1	14	0	-8
158	1	15	-13	-8
157	1	17	-2	-1
158	2	15	16	3
158	3	17	13	7
158	5	18	15	0
157	5	19	16	0
157	7	19	-24	10
157	4	15	-26	11
158	1	18	-1	7
158	3	22	-12	2
158	5	21	5	-6
158	3	18	-5	-16
158	4	19	4	-9
158	3	24	38	-1
157	5	21	23	10
158	7	19	38	22
157	5	23	51	21
158	6	19	27	20
158	5	17	-14	12
157	4	18	-15	10
158	3	16	21	0
158	5	15	13	-6
158	6	17	-7	-14
157	6	18	-6	-16
158	11	21	17	-17
157	8	17	37	-20
157	4	13	35	-10
157	4	17	14	-3
157	3	17	-18	2
158	5	18	-36	-2
157	8	20	-34	9
158	10	18	-37	10
158	5	19	-50	14
158	7	21	-33	14
158	8	18	6	9
158	7	18	45	4
157	3	15	45	-4
157	5	16	60	-12
158	8	18	73	-15
157	10	9	10	-10
158	5	15	9	-9
157	5	21	57	2
158	9	17	44	7
158	7	14	10	-2
157	3	12	-29	-9
158	3	18	-14	-2
158	5	19	15	4
158	5	23	10	4
157	3	19	4	5
157	5	19	-44	15
158	4	24	-65	16
157	3	18	4	7
158	2	21	30	1
157	0	18	25	-1
157	-16	14	45	4
158	-30	15	8	2
157	-24	15	-7	5
158	-12	14	-6	0
157	-1	16	-13	8
157	15	19	-20	16
158	28	20	6	8
158	42	23	43	9
157	40	25	30	1
158	31	23	14	3
158	27	22	15	3
158	32	22	23	6
158	25	24	7	4
157	10	18	-5	-5
157	0	19	21	-12
157	-5	20	22	-18
157	-5	17	-11	-19
158	-5	22	-37	-6
158	-3	17	0	2
158	-3	16	32	-2
158	-3	15	42	-6
158	-4	15	84	-3
158	-3	15	73	-1
159	-1	15	-1	6
158	0	20	-36	6
158	-1	14	-18	-1
158	-1	15	-51	8
158	2	19	-50	0
157	0	14	-19	6
157	1	11	-32	17
157	3	13	-3	10
157	5	21	6	0
157	4	21	20	2
157	4	19	12	7
158	3	18	-27	6
158	3	15	-34	9
158	7	16	-14	6
157	5	18	31	6
157	9	18	43	8
158	7	22	30	7
158	6	22	25	11
158	5	23	30	4
157	6	21	16	2
158	5	19	18	-1
157	3	17	12	-6
157	2	20	-11	-2
157	4	22	-18	-4
158	5	25	-6	-10
158	0	25	-1	-16
158	-6	22	-25	-19
158	-6	16	-22	-15
158	4	16	23	-13
157	11	21	50	-4
158	15	20	49	-3
157	15	17	51	-1
157	16	11	66	4
158	16	11	58	-5
158	9	21	-3	-14
158	5	22	-31	-3
158	8	15	-36	9
158	6	19	-48	11
158	9	23	-13	19
157	7	18	-3	20
158	2	15	8	19
157	3	15	10	20
157	2	13	5	16
158	1	9	56	21
157	1	12	57	18
157	4	15	17	22
157	5	15	19	14
158	3	18	18	1
157	5	13	-15	-7
158	4	14	-44	-26
157	3	15	-29	-36
157	3	17	-7	-31
157	3	18	5	-23
157	2	15	45	-17
157	5	17	57	-6
157	8	18	34	4
158	7	21	19	-1
157	4	19	15	-2
158	6	19	-10	4
157	5	21	-12	4
157	8	22	25	7
157	9	17	25	10
158	7	19	0	6
158	7	20	-8	6
157	8	15	12	4
158	5	16	33	7
158	1	14	9	11
158	1	14	-2	12
158	3	19	-10	2
157	3	22	-30	4
159	5	19	-36	4
158	2	20	-38	7
158	1	23	-13	10
157	5	18	23	3
158	4	22	45	6
158	5	19	58	-4
158	4	18	32	-4
157	5	22	10	7
157	7	22	19	5
158	3	18	6	2
157	1	16	5	8
158	-6	17	-1	11
157	-15	16	13	11
157	-14	16	17	13
158	-5	15	-4	10
158	5	17	37	2
157	14	18	46	-9
157	9	16	-19	-12
157	15	26	-50	-15
158	30	28	-18	-13
157	33	26	-29	-10
158	25	26	-41	-2
157	10	19	-8	4
157	13	21	-6	-3
158	7	19	1	-9
158	1	24	3	-6
158	6	24	15	-3
158	5	10	16	8
157	10	11	21	-4
157	17	15	41	-19
157	17	17	-11	-5
157	8	21	-24	-6
158	4	18	24	-4
157	8	13	0	8
157	5	20	6	8
158	2	17	36	14
158	0	20	42	27
158	-2	19	78	17
158	-6	14	53	16
157	-4	20	-17	25
158	2	27	-83	29
158	0	22	-41	35
158	-3	15	-15	35
158	-1	14	-49	23
157	-1	15	-9	-3
157	1	21	-14	-29
157	3	16	-50	-52
157	-1	15	-23	-67
157	2	18	84	-54
157	3	18	87	-26
158	2	17	30	-17
158	0	18	7	-13
158	0	17	4	-6
158	3	17	9	5
157	3	15	-15	17
157	5	16	25	16
158	3	18	58	6
158	2	16	70	2
158	5	19	61	-5
157	5	17	72	-4
158	8	21	97	-2
157	7	19	63	-1
158	5	15	2	11
157	3	14	-18	21
157	4	15	-9	14
157	7	18	-20	8
157	7	17	-13	6
158	6	11	0	9
158	7	14	5	14
158	7	19	-18	9
158	8	21	-22	4
157	11	22	-8	4
158	10	23	-17	7
158	9	23	-10	-2
158	5	16	-14	-4
158	1	19	-21	4
159	4	19	-29	4
158	2	16	-28	11
158	5	18	-3	10
158	7	19	38	15
157	5	21	49	18
158	3	14	26	21
158	-1	12	21	21
158	0	24	-2	2
158	-3	28	13	-2
157	-5	21	64	-4
158	2	19	55	-5
158	3	15	10	-9
158	4	13	-31	-5
158	12	14	-52	4
158	25	19	-64	9
158	31	26	-40	7
158	22	23	-12	-3
158	12	22	-17	-1
158	11	19	-20	1
158	12	17	-30	-2
157	5	13	-21	-11
158	5	13	8	-25
158	3	19	38	-19
157	1	19	43	0
158	-1	19	18	5
158	-1	21	16	4
157	-3	17	14	3
157	0	18	7	1
158	1	19	24	10
158	-1	16	36	13
157	1	17	50	6
158	3	15	83	-8
158	4	15	47	-21
158	-4	20	-16	-32
158	-16	17	-18	-40
158	-16	15	-30	-32
158	-3	17	-64	-18
159	1	16	-57	-11
158	5	18	-4	2
157	9	15	20	19
157	20	19	-7	18
158	29	19	16	12
159	24	19	47	18
158	18	18	55	23
157	9	13	84	18
158	-4	11	77	12
158	-10	18	-23	8
158	-2	24	-60	-5
158	3	24	24	-20
158	12	26	33	-11
158	24	22	33	-4
157	19	18	59	3
157	17	15	-5	14
158	21	21	-65	11
157	11	25	-23	12
157	7	18	-3	9
157	4	16	-32	10
158	3	15	-30	8
158	3	15	-27	7
158	3	17	-2	10
157	0	18	4	14
158	1	21	13	13
157	1	18	38	8
158	0	20	80	9
157	3	18	85	3
157	1	21	17	7
157	0	17	22	11
158	-1	13	39	12
157	0	16	8	9
157	-1	19	-22	2
157	1	24	-8	-4
158	3	26	6	0
158	3	24	9	-5
158	0	22	5	-9
157	0	15	-18	-9
157	3	15	-22	-9
158	8	17	-37	-10
158	5	15	-18	-11
157	0	17	3	-5
158	0	18	1	-1
157	-3	19	8	-8
157	-9	19	-10	-4
157	-3	20	-17	-4
157	0	14	-21	-10
158	6	14	-28	-1
158	10	18	-9	2
157	22	15	6	-2
157	26	19	20	0
158	17	19	55	3
158	15	19	86	7
158	16	20	43	10
158	11	23	-5	22
157	7	20	-2	26
157	5	18	13	15
158	4	15	22	-3
157	4	19	-17	-21
158	4	18	-29	-35
157	1	19	-14	-36
158	2	19	6	-15
157	3	19	25	2
158	3	19	20	3
157	5	15	40	5
158	3	16	27	8
157	0	15	20	6
158	0	20	25	-5
157	3	18	7	0
158	5	18	5	-4
158	3	17	17	-7
157	3	15	28	4
157	3	16	-14	8
157	4	18	-85	14
158	4	20	-54	22
158	4	17	26	21
157	8	15	15	17
157	4	11	31	6
157	5	15	58	7
157	5	14	54	9
158	5	11	30	-7
158	8	17	-26	-20
157	8	21	-12	-22
158	5	19	-6	-7
157	5	17	-1	-6
158	3	19	14	0
158	5	23	12	7
157	8	24	28	7
158	4	19	56	5
158	2	22	56	6
158	3	19	41	12
157	1	19	21	9
157	-1	19	-31	3
157	2	17	-37	3
158	3	17	-35	7
157	3	17	-35	2
157	5	19	-24	5
158	4	20	7	12
158	5	19	37	13
158	4	18	-5	13
158	6	22	-8	12
157	4	17	17	16
158	3	22	-5	19
157	4	21	-18	15
157	1	15	-43	-2
158	5	23	-25	-21
158	12	22	18	-11
158	17	22	15	-7
158	7	25	51	-14
158	5	14	63	-11
158	3	8	30	-20
158	6	16	32	-25
157	10	17	30	-22
157	5	19	5	-13
158	6	21	3	-6
158	8	22	-10	-2
158	11	25	-11	-1
158	4	24	-7	3
157	3	21	27	8
158	1	13	41	11
158	5	13	-54	15
157	9	18	-62	7
157	12	19	-3	5
157	10	15	-5	6
157	2	18	13	7
157	0	17	6	15
158	-5	16	9	6
157	-4	16	25	3
158	0	15	27	0
158	3	15	36	4
157	6	19	15	8
158	5	19	12	4
157	4	16	15	1
158	1	16	-9	3
157	1	17	-11	5
157	4	15	15	-1
157	3	12	20	2
158	4	13	17	7
158	6	18	23	3
157	9	15	16	2
158	4	16	-15	10
157	5	17	-41	6
158	4	14	-1	10
157	3	16	35	14
157	4	17	29	4
157	4	18	31	-7
158	7	19	63	-9
157	5	14	47	5
158	2	13	-21	-3
158	-5	21	-20	-5
157	-6	21	16	11
157	-1	19	39	0
157	2	22	-14	-15
158	10	21	-89	-19
157	14	21	-27	-27
157	24	19	28	-30
158	24	23	22	-19
157	16	24	28	-10
157	10	19	17	-4
157	8	18	6	0
157	-1	22	5	1
158	-11	17	16	4
158	-6	13	38	10
158	-1	18	45	13
157	3	17	10	16
158	4	17	-48	17
157	7	15	-65	16
158	15	17	-49	22
158	25	19	-48	18
158	26	22	-12	7
157	19	22	28	-4
158	16	24	26	-17
158	12	22	31	-17
158	7	19	20	-2
157	1	19	26	11
158	1	16	42	10
157	0	19	35	11
158	-3	21	40	9
157	-3	19	37	8
157	-2	18	30	14
157	0	15	6	12
157	-3	11	-13	8
158	-1	17	11	13
157	-1	17	20	4
158	1	19	6	-9
157	1	22	4	-6
157	1	20	-17	-9
157	4	18	-11	-11
158	3	16	8	-2
158	3	15	4	0
158	3	16	5	-8
158	2	22	0	-14
157	1	15	-9	-17
158	1	16	-18	-12
157	4	21	-10	-4
158	4	19	-11	1
158	4	25	2	9
157	4	17	32	15
157	4	14	45	19
157	5	13	53	18
157	3	17	7	6
157	-2	16	-11	-6
158	4	17	10	-11
157	4	18	-4	-6
158	6	21	-20	-6
157	6	23	9	3
157	3	24	24	3
158	5	24	6	4
157	12	17	-24	11
157	15	17	-75	12
158	5	16	-36	10
159	3	17	-12	3
157	5	18	-20	8
158	5	17	29	9
158	5	14	43	3
158	1	14	59	0
158	-5	15	64	2
157	-8	19	70	8
158	-2	21	71	9
158	3	13	77	12
158	5	7	40	6
157	5	13	-34	-9
157	8	21	-16	-8
157	11	19	-12	-5
157	18	22	-9	-2
158	30	25	6	-5
158	27	28	32	-12
158	20	30	74	-9
157	10	20	50	-7
157	10	14	-33	5
158	11	15	-109	19
157	4	21	-60	4
157	1	18	6	1
157	1	17	3	-1
158	-1	17	5	-4
157	-3	17	-6	6
158	-1	16	2	3
157	-1	14	6	8
157	-1	21	7	8
158	0	21	12	12
158	0	21	6	8
157	0	17	1	-7
158	3	19	-24	-6
158	3	21	-26	-10
157	3	21	-17	-7
157	5	17	0	-10
158	3	14	8	-11
157	3	12	8	-9
157	6	17	8	-1
157	10	22	23	14
158	5	19	55	13
157	8	16	25	23
157	4	13	-38	15
158	5	17	-39	-15
157	10	22	27	-5
157	15	17	65	-2
157	8	17	87	-14
158	0	19	39	-21
157	0	17	8	-21
158	-1	16	39	-6
157	5	19	-26	-1
157	5	19	-22	3
157	2	20	10	8
158	4	21	-3	9
157	3	18	-3	7
157	3	19	-15	9
157	0	18	-16	15
157	-6	19	-23	17
158	-12	19	0	21
157	-5	15	2	15
157	3	18	9	10
158	6	16	20	-1
158	10	17	6	-11
158	12	17	5	-4
158	18	15	8	5
157	25	20	36	16
157	26	19	18	17
157	19	18	10	11
157	17	19	18	-6
157	12	18	-13	-22
158	8	18	-10	-31
157	1	17	19	-27
158	3	17	40	-8
158	1	18	23	-14
158	3	17	19	-13
158	3	17	22	-6
158	0	24	5	-5
158	-1	18	7	7
157	-3	10	9	7
157	-4	11	15	4
157	0	15	-5	7
158	1	17	-19	7
158	-5	16	-9	10
157	-14	16	-3	13
158	-15	14	13	16
158	-7	17	5	16
157	-1	18	6	15
158	5	17	14	12
157	9	20	10	4
158	18	19	0	6
158	27	19	-12	11
158	27	18	6	9
158	16	19	21	6
158	11	24	23	3
158	9	22	15	-6
157	1	19	-2	-6
157	2	17	-13	0
157	6	18	17	-9
158	5	21	46	-8
158	3	23	3	-2
158	5	21	-1	0
158	5	17	2	2
157	5	18	-23	-1
158	1	15	-12	-4
158	-1	15	7	-9
157	5	13	21	-3
157	8	16	17	0
158	11	22	4	6
158	7	23	6	6
158	1	19	-5	2
158	-4	9	-9	8
157	-5	4	-4	5
158	-2	14	7	-2
157	1	17	30	-2
158	3	20	25	-7
158	6	28	2	-2
158	5	22	27	3
157	4	18	35	14
157	4	16	4	18
158	8	17	-32	14
157	8	15	-21	3
157	5	19	-18	-20
157	6	22	-5	-17
157	7	18	86	-7
157	7	24	39	-6
158	8	22	30	-8
157	8	21	51	4
158	1	19	29	7
157	-8	19	19	6
157	-7	19	-35	3
158	-1	18	-27	-2
157	5	19	-22	-1
157	14	21	-21	-4
157	14	20	-21	-4
157	16	17	-42	-5
157	21	22	-19	-5
158	19	20	28	1
157	15	19	73	9
158	11	18	95	11
158	8	16	58	18
158	5	20	3	18
158	2	15	-20	15
158	0	13	-43	10
158	1	13	-24	5
158	-2	13	10	-3
157	-1	17	34	-6
158	4	17	2	-13
158	2	22	-18	-21
158	2	22	-12	-5
157	1	21	-31	-2
158	3	21	-18	-1
157	2	17	-12	2
158	3	19	3	3
158	3	17	13	6
158	4	21	35	0
157	8	16	39	-5
158	7	11	36	-6
157	1	12	25	-1
158	1	15	-27	0
157	5	26	-23	4
157	7	21	20	6
158	4	19	34	9
157	7	19	32	8
157	4	16	25	11
157	0	21	20	7
158	-9	22	10	7
157	-13	17	-11	10
158	-8	16	-41	0
158	-2	18	-49	4
157	6	17	-19	11
158	11	17	1	16
157	15	18	-2	14
157	20	19	-12	11
158	20	19	13	-1
157	21	15	34	-14
157	25	14	62	-6
158	24	22	90	-8
158	11	22	53	-9
158	7	18	15	-10
158	5	14	-28	-6
157	3	19	-35	3
158	1	19	-3	2
157	-1	17	-11	11
158	1	22	-6	17
158	0	19	2	12
157	-2	22	20	4
158	-10	19	33	-1
157	-10	18	20	-16
158	-8	16	-1	-26
157	-2	11	-21	-17
158	1	13	-23	-13
158	5	13	-23	-6
157	20	21	-24	17
158	24	20	-54	12
157	14	22	-49	-1
157	8	28	-24	-1
157	8	21	-6	7
158	8	21	47	11
157	5	18	100	10
158	5	16	133	4
157	7	19	93	8
157	6	17	39	4
157	4	17	63	-5
157	10	17	74	3
157	8	18	79	-1
158	4	17	28	9
158	4	22	-63	21
158	-2	22	-16	14
157	-6	5	-9	5
158	-1	13	-66	-4
158	1	17	-46	-12
157	2	18	-40	-11
158	8	22	11	-9
157	5	19	12	-1
158	5	18	-4	-1
158	3	13	16	3
158	6	23	-7	0
158	6	23	5	-2
158	4	19	-14	1
158	7	19	-24	-4
158	4	19	-1	-5
158	7	18	17	-7
157	7	18	-2	0
157	4	17	-30	2
157	5	17	-11	7
158	4	18	13	7
157	3	15	22	9
157	3	14	22	12
157	1	15	19	1
158	-11	16	-5	4
157	-13	18	-14	7
158	-5	19	-16	6
158	0	19	-28	6
157	10	18	-8	6
158	17	16	15	6
157	20	16	16	3
158	25	19	27	5
158	24	22	50	8
157	15	21	46	6
157	10	19	32	4
158	10	16	-5	9
157	6	11	-5	-8
158	5	15	15	-19
157	1	19	31	-8
158	-1	16	36	-15
157	1	15	-9	-9
159	3	19	-37	1
157	5	22	-10	4
158	3	17	13	7
158	3	17	-2	7
157	-1	19	8	10
158	-13	17	5	14
157	-17	20	13	13
158	-7	21	13	11
157	-4	15	-5	10
157	2	19	-26	17
157	3	19	-1	15
158	7	17	31	1
157	27	22	-23	-4
158	39	25	-22	-7
157	33	22	0	-14
158	21	14	-4	-20
158	16	16	20	-28
158	15	25	93	-26
157	11	24	151	-21
157	3	23	64	-20
158	3	20	8	-13
157	0	18	3	-8
157	1	19	-38	1
157	0	16	-14	7
157	-2	9	-7	5
158	-2	15	-11	7
157	0	19	-4	9
158	0	18	1	10
158	-1	18	16	9
157	0	19	7	9
157	1	19	9	13
157	3	17	8	16
158	1	17	8	18
157	0	16	14	16
158	-2	17	7	12
158	0	18	-4	2
157	1	19	1	-11
157	2	19	39	-5
157	4	18	36	4
157	5	23	1	2
158	9	17	17	9
158	10	13	17	14
158	3	14	-81	20
158	-4	17	-116	13
158	-8	13	-36	6
158	-6	14	-21	9
158	-3	23	0	7
158	5	20	8	4
157	12	23	35	-8
157	21	16	102	-20
158	25	19	13	-29
157	17	25	11	-17
157	11	21	43	-2
157	11	17	14	3
157	8	15	21	3
159	7	13	-6	-3
158	4	16	7	-1
157	3	18	3	1
157	1	16	-2	6
158	-2	17	17	2
158	0	15	19	-2
157	3	13	10	-6
158	2	21	-16	-2
158	5	17	-11	-3
157	0	16	5	7
158	1	17	13	21
158	12	18	33	18
158	12	20	36	13
158	5	18	25	4
157	3	22	-4	3
159	0	15	10	-6
158	2	12	6	-5
158	5	19	-20	7
157	1	19	31	15
157	3	10	-33	18
157	10	19	-57	-3
157	7	21	-2	-9
157	6	14	-28	-6
158	4	21	0	-13
157	8	22	-12	-15
158	8	21	17	-14
158	8	21	37	-11
158	8	19	-1	-7
157	5	18	6	-8
158	5	17	11	-6
157	5	17	39	-3
158	2	19	31	1
157	1	22	42	4
157	3	21	45	2
158	1	18	35	6
158	3	19	39	3
157	0	21	27	9
157	1	21	6	11
157	-9	17	-9	7
158	-17	16	19	9
157	-11	19	-2	13
157	-4	21	-8	19
158	9	20	0	16
157	23	21	-8	9
158	21	21	-6	9
157	21	21	-9	4
158	28	23	-2	-7
158	26	24	-15	-11
158	25	17	-5	-5
158	18	18	2	-5
158	3	21	-1	4
157	1	19	10	13
157	0	19	11	14
158	4	19	10	15
158	3	16	-10	9
158	-4	12	-17	2
157	-4	13	-12	-6
158	1	17	-18	-21
157	3	18	-34	-29
157	5	20	-36	-22
157	11	15	-6	-11
158	21	18	57	-9
157	21	21	116	-8
157	12	18	83	-1
157	3	13	52	6
158	4	15	47	10
157	0	21	30	12
157	-1	20	23	14
157	5	19	3	16
157	1	14	-1	15
158	-1	13	-22	3
157	-3	15	-51	-12
158	-4	17	-44	-20
158	-3	19	-18	-11
157	1	22	-3	-9
157	1	20	6	-12
158	0	18	8	-1
157	0	17	1	8
158	-1	15	28	11
157	2	17	72	9
158	4	16	46	8
158	1	19	-40	17
158	5	19	-69	18
157	3	11	-50	0
157	3	12	-17	-3
158	6	13	10	-2
158	5	15	20	1
157	5	22	39	8
158	5	17	19	0
158	2	19	-8	-4
158	0	18	10	-5
157	1	14	40	0
157	3	16	41	2
158	7	17	30	5
157	8	17	28	9
158	3	20	-27	4
157	5	19	-56	10
158	13	25	-20	8
157	19	30	5	9
158	20	25	22	16
157	12	24	48	10
158	0	16	45	4
157	3	17	-3	2
157	5	16	-27	-9
158	5	18	-37	-5
158	5	19	-39	10
157	5	17	-15	9
158	8	22	0	4
157	6	19	20	-6
158	7	22	60	-9
158	5	19	124	-5
157	5	21	111	-6
157	5	21	21	0
157	7	18	1	4
158	3	18	39	-3
158	3	13	47	-9
157	3	18	6	-6
158	-3	19	-10	-8
158	-10	12	-11	-2
158	-8	17	-25	2
157	-9	17	-24	5
158	1	18	-37	4
157	11	22	-32	8
158	17	19	-20	20
157	29	18	1	23
157	28	22	13	10
157	19	24	24	0
157	14	19	16	2
157	12	20	-33	4
158	11	24	-28	-1
157	7	22	-10	-8
158	2	15	-21	-18
158	-3	11	1	-38
158	-4	12	18	-39
157	0	15	-2	-29
158	1	18	15	-12
157	3	19	15	-2
158	-6	8	42	-1
157	-14	11	48	1
157	-5	18	-12	10
158	4	18	14	9
158	5	17	-7	7
157	0	19	-31	8
157	-2	18	29	10
158	1	19	13	11
157	1	19	-21	7
157	4	16	-10	6
159	10	21	16	4
158	14	19	32	-4
157	23	25	35	-3
158	24	23	16	7
158	19	16	-9	13
157	16	8	-18	15
158	10	9	-18	3
157	10	17	5	1
157	7	21	27	8
157	5	19	37	6
158	4	19	13	7
158	2	18	-1	1
157	1	18	40	-1
157	-1	19	40	9
157	-2	19	-13	20
158	-4	15	-13	19
158	-6	15	-15	13
157	-5	21	-18	2
157	-4	16	6	-6
158	1	22	29	-6
157	12	22	73	-9
157	19	22	78	-13
158	8	19	48	-8
158	3	17	19	-9
158	5	15	1	-7
158	3	19	-23	0
158	4	20	-18	-1
157	4	21	-11	0
157	2	24	-19	4
158	2	22	-10	10
158	1	20	12	12
157	1	19	52	4
158	-1	16	19	2
157	-8	17	-68	11
158	-7	19	-44	12
157	-6	10	2	5
157	-2	13	-22	6
157	9	17	5	0
157	18	13	12	-7
158	28	18	-4	-8
158	27	19	-6	-9
158	16	22	-12	-17
157	5	17	14	-16
158	4	17	27	-5
158	10	22	32	6
157	4	20	41	8
158	2	22	63	6
158	0	17	47	13
158	-3	16	20	8
158	3	17	33	-5
158	-2	17	19	-12
158	-2	16	-6	-9
157	8	20	-8	-4
157	10	22	-31	3
158	3	19	-56	6
158	-4	17	-56	17
157	3	14	-3	10
158	5	18	28	-4
158	7	21	51	2
157	5	14	111	3
157	5	17	31	1
157	8	22	-33	1
158	8	17	-18	7
157	13	11	-45	14
157	13	16	-26	8
157	4	18	-29	-4
158	0	17	-6	-18
158	-3	14	9	-18
157	-3	10	3	-2
158	1	16	16	-12
157	4	21	0	-4
157	4	21	8	6
157	0	20	7	1
158	-9	17	9	3
158	-11	17	6	7
158	-3	17	6	13
157	3	19	21	12
157	0	21	16	17
158	-11	19	15	14
158	-20	15	14	7
158	-1	16	6	2
157	19	19	-7	2
158	31	21	12	-1
157	37	19	30	-1
157	38	19	11	2
157	42	21	-5	2
158	41	25	-12	7
157	34	26	-3	4
157	29	27	2	5
157	15	23	4	11
157	5	20	32	10
158	2	18	75	2
157	-8	15	96	0
158	-5	15	28	3
158	-3	16	-35	-3
158	-3	22	-27	-13
158	-1	25	-18	-18
158	-3	19	-3	-18
157	-4	16	3	-24
158	-6	18	2	-19
158	-5	18	5	-4
158	-5	19	-5	-1
157	-6	16	12	8
157	-3	15	19	13
157	-3	17	12	10
157	0	16	28	9
158	0	10	31	4
157	-1	13	21	2
158	0	17	-9	4
158	0	23	-21	7
158	-2	21	14	1
157	2	15	5	0
158	0	14	-23	4
157	4	18	-26	1
158	8	19	-3	0
158	9	19	16	4
157	3	19	34	6
157	-2	17	55	3
157	0	17	23	3
157	2	19	17	4
158	1	22	16	5
157	-4	23	-3	7
158	0	18	2	4
158	9	17	-11	2
158	17	17	-15	4
157	26	16	-5	10
157	22	21	-2	4
158	12	22	0	-3
158	9	14	1	2
157	9	17	-8	4
157	2	18	-6	0
157	2	17	11	6
158	3	19	16	7
158	0	17	29	9
158	10	18	32	12
158	15	13	-15	10
158	14	9	-82	7
158	7	14	-51	-12
157	2	19	2	-14
157	-1	17	19	3
157	-1	17	95	-3
157	3	18	75	-8
157	10	17	20	-11
157	14	21	5	-18
157	12	16	-20	-18
157	9	19	-8	-5
158	2	22	10	2
158	-3	17	22	1
157	-4	18	-7	6
158	0	20	-27	2
158	0	21	-19	4
157	-1	22	-1	0
157	8	24	9	0
158	17	26	-2	4
157	9	25	10	10
158	5	16	28	17
157	10	15	52	21
158	5	17	75	29
158	6	17	87	28
157	2	17	65	21
157	1	15	6	18
158	4	18	-47	8
158	3	18	-73	-6
158	1	16	-48	-18
158	2	21	-49	-27
158	5	26	-84	-36
158	5	23	-33	-41
158	8	18	40	-42
158	7	17	60	-35
157	4	16	47	-29
157	1	13	6	-25
157	-1	16	-20	-6
157	-18	19	-11	-1
158	-28	18	-5	11
158	-7	16	-16	24
157	5	14	35	17
158	13	17	28	15
158	19	16	22	6
158	17	17	54	8
157	17	22	65	11
158	8	21	64	17
157	14	19	8	17
157	19	13	9	11
158	15	14	8	13
157	22	18	16	9
157	18	21	10	4
157	13	18	-6	2
158	12	21	-6	11
157	0	23	-7	12
157	-3	17	-8	9
158	4	17	-26	9
158	5	15	5	9
158	16	18	5	11
158	19	15	4	8
158	7	19	9	4
157	8	25	33	-1
157	14	21	30	-2
157	11	19	4	2
158	-1	17	-16	-4
158	-8	14	-32	6
157	-7	14	1	3
157	-6	19	-11	0
157	-7	15	2	2
157	-6	17	13	0
158	-4	19	19	1
157	-4	15	28	0
157	-3	15	0	8
157	-2	14	17	2
158	1	15	31	5
157	0	15	25	4
157	1	17	4	-3
158	3	18	-5	-1
157	1	17	2	-6
157	3	17	-35	-2
158	2	21	-31	2
158	10	19	40	-2
158	14	11	45	-9
158	18	14	4	-10
157	11	15	-10	-13
158	4	11	-14	-17
157	-3	8	-13	-14
158	-5	14	-26	-9
158	4	21	-2	-4
159	8	23	8	6
157	3	21	4	8
157	0	18	15	10
157	12	18	4	7
157	14	17	-2	6
158	5	19	-2	11
157	7	24	8	6
157	5	20	3	8
158	2	21	-16	5
157	7	18	-5	3
158	7	17	69	2
157	5	24	97	-4
157	8	22	63	0
158	10	21	27	2
157	8	19	2	2
157	5	17	3	-5
158	4	22	-6	-2
158	4	22	21	-2
158	4	24	17	-8
158	4	23	15	0
157	4	21	28	11
157	8	22	10	9
157	3	24	8	6
157	3	24	-31	4
157	5	25	-40	7
158	5	23	-1	3
158	5	22	27	1
157	7	22	15	10
157	5	17	1	1
157	-3	14	24	-4
157	-8	17	0	0
157	-4	14	-8	-3
157	3	12	16	0
158	14	15	21	7
158	19	18	3	11
157	13	18	-36	9
157	7	22	-51	2
158	7	24	-35	-7
157	5	17	-23	4
157	1	12	-19	7
158	1	9	6	-4
157	-7	7	31	-8
158	-7	19	54	-17
158	13	25	47	-16
157	16	24	30	-15
157	13	20	56	-14
158	16	23	22	-4
157	15	25	1	6
158	16	22	33	15
158	19	21	16	12
157	16	15	-7	16
158	15	15	-23	10
157	12	16	3	-2
158	7	14	-11	-6
158	1	12	-17	-7
157	-3	18	-2	10
157	6	19	-15	19
157	10	19	-15	19
157	0	21	-1	22
158	-7	22	36	23
158	-8	24	26	30
157	-4	17	20	28
157	-5	13	16	13
157	2	14	-21	-4
157	4	17	-8	-17
157	5	21	8	-26
158	2	18	-1	-36
157	0	19	-6	-46
158	2	16	12	-46
157	1	17	16	-45
157	1	22	21	-25
157	5	16	15	-3
157	8	13	-8	5
157	1	15	-4	11
158	1	17	4	5
157	8	18	2	8
157	9	16	26	12
157	3	20	43	11
157	-4	19	16	16
157	-1	21	7	15
157	8	22	8	14
158	7	22	0	13
157	3	22	5	16
157	9	17	9	17
157	10	19	20	14
157	4	23	30	16
158	8	15	27	9
157	3	16	13	-1
157	3	20	29	4
158	3	19	65	2
158	0	11	24	0
158	6	16	-75	6
157	10	21	-50	1
158	7	16	44	2
157	5	14	17	9
158	-5	16	3	9
157	-19	19	-1	7
157	-13	17	-13	5
158	3	17	-5	0
157	12	18	-35	-9
157	18	18	-20	-15
157	20	19	8	-7
157	25	21	6	-8
158	31	19	10	-6
157	21	15	25	13
157	13	10	8	15
157	16	15	1	7
157	12	21	5	-5
157	9	20	-16	-14
158	1	22	-24	-8
157	2	23	16	-8
157	-2	19	34	-6
157	-9	19	0	5
157	-8	19	-16	11
158	-9	15	26	16
158	-15	13	71	6
158	-17	13	42	-3
157	-5	22	15	-11
158	13	22	14	-8
158	28	20	-9	-6
157	25	19	-18	-7
158	12	17	-9	-1
157	5	18	-4	1
158	-4	17	-7	6
158	-5	21	-9	2
158	-3	21	41	9
158	3	22	85	7
157	5	22	60	-3
158	10	15	49	-2
158	18	9	33	2
157	22	7	19	6
158	21	18	49	-3
158	14	19	39	-8
157	8	14	-23	-8
158	7	18	-72	-1
158	3	17	-65	7
158	0	17	-16	1
157	1	16	1	-3
157	1	18	-42	-1
158	3	22	-19	2
158	0	18	17	-4
158	-1	14	-7	-5
158	1	18	-14	-3
157	2	22	-29	0
157	5	17	-22	8
158	1	15	10	11
157	1	15	21	20
157	0	14	8	22
157	1	15	-2	15
158	-1	18	-10	13
158	1	16	-3	14
157	3	21	15	15
158	3	20	50	12
159	0	19	32	7
158	1	23	-50	-3
158	10	18	-18	-8
158	16	15	17	-11
158	9	15	17	-20
158	4	16	46	-35
158	5	18	42	-28
158	9	15	47	-23
157	13	18	33	-26
158	7	21	21	-16
157	5	20	39	-11
158	3	22	20	-1
157	-1	21	13	4
158	-1	22	38	14
157	3	24	36	19
157	12	23	19	12
157	5	19	-14	18
157	3	22	-37	9
158	2	21	-30	2
157	2	18	-37	15
158	1	24	-28	7
157	2	20	-15	9
157	1	16	9	8
157	2	18	27	2
158	6	17	18	12
157	3	18	13	14
158	4	15	-7	23
157	5	14	1	24
158	5	18	8	23
158	8	21	9	25
157	11	18	10	27
157	9	17	2	23
157	3	15	0	2
158	9	20	-23	-19
157	15	21	-11	-33
157	12	19	12	-41
157	4	24	3	-49
157	2	21	25	-30
158	5	16	77	-14
157	3	16	60	-11
157	5	22	-45	-4
158	8	25	-61	-1
158	7	15	3	0
159	4	14	6	-2
157	3	13	50	0
158	4	15	75	3
158	5	15	35	10
157	2	13	20	13
158	4	18	35	13
158	5	18	55	13
157	5	16	24	13
158	7	14	-28	15
157	5	14	-30	16
157	4	19	0	9
158	1	19	-22	12
158	5	20	-38	-1
158	5	18	-51	-5
158	2	17	-75	3
158	0	17	-64	0
157	-8	18	-3	2
158	-14	17	13	2
157	-10	17	-29	-1
158	-8	22	0	3
157	-5	16	62	-1
158	1	17	109	2
157	1	14	85	1
158	15	11	82	-6
159	25	19	48	2
158	32	21	-16	-8
157	34	19	3	-10
157	29	18	-8	-5
157	34	19	10	-7
157	28	24	19	-1
157	17	24	23	1
158	8	17	38	3
157	6	15	22	10
158	2	20	12	6
157	-1	19	-25	8
157	-2	20	-54	4
158	-2	18	-46	-1
158	-4	16	-24	-4
158	-8	16	-1	0
158	-5	18	36	5
158	1	25	32	8
157	15	30	1	19
158	8	17	-10	23
158	-3	9	-44	26
157	1	9	-30	11
157	-3	17	6	1
157	1	19	18	9
157	4	15	40	0
158	-3	20	24	-11
158	-5	20	31	-7
158	-7	19	81	-3
158	-6	22	39	-13
158	3	21	-43	-25
157	13	22	-55	-35
158	16	22	-17	-26
157	10	23	9	-11
157	7	22	1	-1
158	1	20	8	-1
158	4	14	17	6
157	3	15	19	15
158	3	19	10	15
158	3	19	0	24
158	5	16	15	26
158	3	14	30	25
157	1	15	38	22
157	4	15	25	14
157	4	15	9	2
158	7	16	17	-18
157	7	17	17	-34
158	7	17	4	-33
157	5	19	-6	-18
158	5	19	0	-3
158	6	16	-8	-6
157	3	13	8	-13
158	5	15	56	3
158	7	17	23	12
157	3	19	-16	8
158	4	15	-20	2
158	0	13	-37	7
158	2	17	-36	0
157	3	14	-11	-6
159	3	17	6	9
157	4	22	14	3
158	4	19	16	11
157	7	17	-4	17
157	5	18	4	5
157	10	21	25	0
157	8	21	22	-2
158	7	21	5	0
157	7	20	-25	7
158	5	17	-37	12
157	7	17	-34	15
158	-1	18	-15	14
158	-17	18	-22	7
157	-21	17	-15	1
158	-14	16	2	4
157	-2	18	-10	4
157	5	15	-5	1
158	5	13	7	3
158	25	12	56	3
157	49	15	88	-1
158	43	26	57	4
157	27	31	102	6
157	18	29	191	-13
158	18	21	123	-11
158	21	22	3	4
158	9	16	-61	7
158	10	17	-79	1
157	12	20	-33	1
158	1	21	-17	0
157	-8	17	-13	4
158	-10	15	10	2
157	-8	19	14	4
158	-8	17	-3	2
158	-8	22	0	1
158	-7	24	26	3
157	0	22	21	6
158	12	21	-12	12
158	8	13	-25	11
158	0	15	-35	-1
158	3	18	-31	-20
157	3	16	-12	-18
157	1	17	-1	-20
158	-1	18	9	-26
158	-1	18	8	-16
158	-1	17	8	-4
158	0	19	15	-8
158	-1	14	17	-4
158	-1	12	24	5
158	3	16	21	8
158	5	18	12	12
157	8	21	17	15
157	11	18	23	24
158	12	14	15	26
157	11	17	0	17
158	6	19	-40	10
158	4	20	-54	-1
158	2	21	8	0
158	5	21	23	-5
158	5	17	0	-11
157	5	19	10	-10
157	5	21	26	-5
157	3	19	34	-4
158	4	15	16	-10
158	5	19	-9	-3
158	4	19	-1	-5
158	3	15	15	4
158	4	18	12	13
157	7	19	20	11
157	9	22	-6	10
157	7	20	-36	7
158	7	15	-34	4
158	8	10	-1	7
158	6	14	19	3
158	10	16	4	-12
158	5	16	-12	-14
157	3	22	-22	-19
157	-5	17	7	-9
158	-24	15	31	13
157	-24	17	85	9
158	-17	15	105	2
157	-6	14	51	0
158	3	18	12	2
158	11	23	-17	-4
158	26	21	-24	-5
157	48	20	4	-8
158	47	25	12	-3
157	32	26	13	10
158	23	21	6	4
157	18	22	2	12
157	15	19	26	8
157	7	17	6	9
157	3	20	-16	11
157	1	20	-37	7
158	-3	22	-47	7
157	-3	17	-28	0
158	-4	15	-16	-6
157	0	17	44	-9
158	0	22	81	1
157	-3	18	65	0
158	-6	17	58	2
157	-1	17	82	11
157	4	14	58	13
158	3	8	-23	13
158	-2	8	-59	9
158	1	14	-45	3
157	12	18	-26	-12
157	13	25	-29	-17
157	7	28	-27	-13
158	-3	21	-20	-8
157	-3	12	-5	-5
158	0	15	19	-2
157	-2	16	38	0
157	-1	15	14	-7
158	-1	22	2	-9
158	1	20	18	-12
157	2	25	7	-13
157	-1	21	8	-6
158	-7	21	6	0
158	-8	24	6	3
158	4	24	-4	9
158	5	18	-15	16
158	5	15	-13	24
157	13	14	22	19
158	11	11	43	19
158	19	15	10	16
157	24	18	16	8
157	27	19	-1	9
158	24	20	-3	-1
158	14	16	65	-4
158	2	15	45	-9
158	-6	12	-22	-2
158	-2	15	-34	0
159	0	17	-12	-9
157	5	17	-10	-2
158	8	15	-6	-1
158	8	17	-9	-1
157	10	18	7	7
157	11	15	35	13
158	14	19	42	8
158	19	22	59	9
157	14	22	53	9
158	-1	16	29	2
158	-6	6	-51	9
158	-5	19	-82	-5
158	-7	23	9	-18
157	-3	17	4	-3
158	0	21	-3	-9
157	-1	19	-1	-11
158	-4	23	-14	-6
158	-3	24	4	-8
157	3	22	-4	-7
157	8	18	16	-6
157	7	15	-4	-1
158	4	16	-15	0
158	7	17	-29	15
158	5	16	-12	21
158	1	10	39	6
157	0	16	34	-12
157	3	19	30	-15
157	5	21	6	-2
158	5	21	17	4
157	5	18	62	14
158	5	18	86	17
157	4	19	64	15
158	3	18	19	10
159	7	18	5	3
157	10	15	-5	-6
158	12	15	-18	-16
157	10	17	-3	-25
157	9	15	12	-14
158	8	17	4	-3
157	7	21	-20	0
158	4	22	-21	10
157	3	18	21	14
157	3	18	38	26
157	8	21	7	26
157	8	24	-7	16
157	9	28	-27	8
157	10	22	-57	2
158	3	17	-59	4
157	-4	15	-43	-12
158	-11	19	8	-21
157	-8	19	68	-21
157	-7	15	78	-17
158	0	17	18	-13
158	10	23	-23	-15
158	19	19	-4	-11
158	29	19	-38	-2
158	27	23	-47	14
158	19	19	62	11
157	14	18	109	9
157	12	18	93	5
158	6	16	66	-5
158	2	16	-7	3
157	3	18	-47	4
157	-1	17	-44	11
157	5	18	-15	17
158	5	17	-7	15
158	1	17	5	15
157	-1	19	17	10
157	-5	17	3	12
158	-17	15	36	16
159	-18	17	35	7
157	-6	23	14	2
157	-5	21	21	1
158	-3	14	17	2
157	9	19	-6	2
157	26	19	-8	2
158	31	17	-9	9
158	27	19	-27	7
157	26	18	-24	-2
158	20	14	-10	-14
158	18	17	-8	-12
158	11	15	-28	-6
158	5	17	-39	-9
157	5	21	-20	-14
157	1	18	0	-22
157	-2	17	20	-24
158	-2	18	39	-18
158	0	18	37	-7
158	0	18	31	-1
158	0	18	68	4
157	0	19	81	4
158	-3	23	30	-1
157	0	19	-5	4
158	2	16	1	8
158	3	16	-3	9
158	3	20	-18	12
157	2	19	-4	11
157	0	14	10	11
158	-1	11	2	19
159	1	15	1	19
158	2	17	-9	18
158	2	16	-3	15
158	1	18	6	11
157	0	15	8	4
158	5	19	29	-5
158	5	23	33	-2
158	7	23	28	3
157	9	22	13	8
158	5	19	-27	8
158	7	25	-29	-6
158	7	24	8	-19
158	8	21	10	-21
158	8	19	30	-20
157	-3	15	41	-5
158	-6	17	27	11
157	-1	16	-5	4
158	1	13	-45	-9
157	3	9	-47	-25
158	10	15	-31	-14
158	17	15	2	-3
157	19	21	-20	-1
158	10	23	-9	11
157	5	19	43	5
158	1	21	19	8
159	2	23	6	5
157	9	22	75	4
158	10	17	84	-2
157	5	18	-38	2
157	4	20	-91	8
158	-3	17	-17	-1
158	-1	20	9	15
158	8	19	2	12
157	10	20	-3	2
158	6	23	-3	5
157	3	15	20	9
158	5	14	2	9
158	18	16	8	7
157	26	17	22	9
157	18	19	46	3
157	12	19	56	-7
158	15	22	26	-1
158	16	18	50	0
157	3	15	55	1
158	-1	15	32	11
158	-3	17	28	15
158	-7	15	19	17
157	-3	16	13	8
157	-3	14	-15	0
157	-4	17	-59	-11
158	-5	25	-75	-20
158	-1	21	-32	-25
158	3	20	-9	-16
158	-1	20	-22	-6
157	5	21	-5	-2
158	18	19	6	2
158	16	19	9	2
158	6	13	24	4
158	4	12	18	0
157	3	17	-4	0
158	6	21	6	6
158	4	20	45	8
157	4	15	55	6
157	5	16	56	5
158	3	17	73	3
157	1	15	67	-1
157	2	17	6	4
157	7	17	2	11
157	4	15	4	17
157	5	19	-19	20
158	7	23	6	17
157	3	29	-1	11
157	3	25	0	13
158	3	16	-8	13
157	3	11	-18	9
158	-3	16	-1	-9
158	-14	17	-12	-13
158	-10	19	-27	-7
158	-3	23	-21	-5
158	1	13	-8	-1
157	10	13	-15	-9
158	13	19	-7	-21
157	16	22	19	-22
158	24	20	-4	-10
158	25	18	-28	-9
158	18	15	2	-3
158	15	17	13	4
157	13	18	23	1
157	11	15	70	7
158	5	18	56	0
157	1	15	3	-2
157	0	17	-23	-6
158	0	18	-16	3
158	2	18	32	5
157	3	22	13	3
158	3	19	4	7
158	2	21	23	2
158	2	21	0	6
157	0	17	-4	2
157	-1	18	-25	-9
157	1	19	-10	-1
158	3	20	0	10
157	2	17	4	10
158	5	19	10	15
157	5	17	23	13
158	2	14	58	7
157	3	15	43	4
157	1	17	-17	8
158	1	21	-47	9
158	4	18	-22	4
157	5	18	-12	2
158	-3	18	30	-6
158	-16	15	63	-5
158	-15	17	28	1
158	-4	18	9	-8
158	1	19	-15	-9
158	14	17	-19	-6
157	16	19	-2	-1
158	26	22	-12	-4
158	37	25	21	2
158	30	28	39	-4
157	23	27	41	-10
157	17	18	21	-1
157	13	11	-27	0
158	8	19	-10	-2
157	7	19	11	-2
157	4	19	6	2
157	3	18	32	-3
158	-1	15	19	1
157	-1	17	-9	-1
158	1	17	-24	8
158	2	18	-16	11
158	-1	17	30	7
158	-3	19	24	8
158	-3	23	46	-7
157	-2	22	49	-3
158	-2	15	-49	10
158	-5	21	-94	23
158	0	21	-26	18
157	7	12	16	13
158	18	18	-2	11
158	11	17	16	3
158	5	14	31	8
157	7	15	34	2
157	8	20	20	-3
158	6	19	20	-7
157	3	21	10	-9
158	5	23	1	-7
157	6	18	26	-14
157	5	19	18	-14
157	4	15	33	-31
158	-1	17	18	-23
157	3	21	-22	3
157	8	21	-3	0
158	9	17	6	-5
158	8	17	-22	2
157	4	17	-23	10
157	-1	17	-12	11
158	-3	17	-23	9
157	-1	19	-19	7
157	1	19	-20	10
158	5	13	39	10
157	5	19	117	3
157	1	19	71	-6
158	5	18	14	3
157	7	24	29	8
158	3	18	23	0
157	4	18	-3	5
157	7	16	-20	0
157	0	15	-23	-5
157	-5	22	-5	3
158	-11	21	-6	8
158	-9	18	-9	14
157	-1	16	-1	7
159	3	14	32	0
157	8	18	61	9
157	11	22	31	11
158	18	21	6	4
157	28	19	1	1
157	27	22	-25	7
157	22	21	-16	2
158	12	19	-10	-4
157	10	19	-5	-5
158	6	15	-3	-11
158	1	16	-7	-8
158	4	15	19	-5
157	5	14	28	-6
157	1	14	29	-2
157	3	16	12	0
158	0	16	8	-1
157	5	19	15	2
157	13	22	16	7
158	11	21	12	8
158	2	21	9	0
157	-12	19	25	-8
158	-14	21	15	0
157	-6	19	-4	6
158	-1	18	-20	6
158	3	17	-22	13
158	8	16	-31	8
157	4	15	-34	-5
158	0	17	-18	-6
158	0	17	16	-6
158	-2	19	28	-1
158	1	24	9	13
158	10	23	22	14
157	10	24	25	11
158	17	21	42	11
157	25	16	29	7
158	23	12	-16	12
157	17	11	-26	8
157	11	10	30	-4
157	11	12	59	-14
159	7	16	-3	-17
157	4	17	5	-20
158	1	14	15	-18
157	-1	9	0	-15
158	0	12	-14	-13
158	-1	16	2	-6
158	-1	12	58	7
158	1	14	2	8
158	4	23	-31	10
158	5	18	15	8
157	4	19	4	-2
158	1	19	-47	-2
158	-1	18	-27	-1
158	0	22	-7	7
157	0	21	4	7
158	5	23	19	2
158	18	25	11	2
158	15	19	22	10
157	3	18	15	14
158	1	17	14	8
158	4	19	18	3
158	4	19	12	-5
157	6	18	20	-5
157	-1	14	23	4
158	1	12	21	4
158	6	17	-10	1
157	7	22	-30	-2
157	5	21	-2	-9
157	7	18	15	-6
158	5	21	29	0
158	8	23	47	5
157	7	19	28	10
157	2	14	13	7
157	4	18	6	4
157	5	21	5	3
158	6	25	20	6
158	5	26	16	11
157	3	21	9	8
158	3	19	-3	4
157	4	13	-7	-1
158	3	13	-21	-6
157	0	14	-49	4
158	-3	21	-73	9
157	-16	23	-75	10
158	-10	17	5	6
157	4	17	48	0
158	5	18	69	-5
158	9	23	87	-3
157	12	21	41	0
157	17	18	31	3
157	27	19	41	8
158	29	24	45	6
158	27	17	53	5
157	19	15	40	-5
158	11	17	-4	-6
158	3	17	-52	-3
158	6	22	-48	3
158	4	18	-30	1
157	3	14	-46	0
157	9	11	-27	-1
157	1	15	9	-4
158	0	16	33	-11
157	-1	15	37	-12
157	-3	19	12	-4
157	-1	17	30	-4
157	1	19	25	0
157	1	16	5	2
157	1	19	9	7
158	2	18	-6	10
157	0	19	-11	10
158	3	17	-10	8
158	3	18	6	2
158	1	17	10	-1
158	4	17	6	-4
157	4	17	-1	-1
157	2	16	-11	1
158	2	18	-13	0
158	6	16	-34	2
158	3	18	-33	2
158	-2	20	-23	5
157	-7	18	-2	6
157	-1	15	45	6
157	4	14	65	7
158	3	15	38	9
157	9	17	44	0
158	15	18	77	-5
158	16	17	95	-6
157	8	18	40	-9
157	3	21	-50	-9
158	-2	23	5	-10
158	3	23	36	-4
158	20	25	7	0
158	23	25	6	5
158	10	17	9	6
158	5	17	15	9
158	13	19	10	13
158	12	16	1	0
158	5	21	-46	-7
157	-3	17	-69	-6
158	-2	20	-47	-2
157	1	25	-8	3
158	3	19	23	7
158	3	17	22	14
157	-3	11	-22	20
157	3	13	-24	-3
158	-1	17	20	-10
158	-8	16	7	2
158	-4	17	16	2
157	-3	18	10	10
157	1	17	5	4
157	8	14	13	9
158	13	17	13	12
158	24	19	23	6
158	26	21	1	0
157	14	19	-9	-3
158	8	18	-3	-7
157	10	18	19	-11
157	8	19	-2	-4
158	5	22	-21	-9
157	0	19	3	-10
157	0	18	14	-7
157	0	18	24	-3
158	-3	14	27	3
158	-2	15	21	-1
157	-2	17	20	-4
157	-6	19	19	-12
157	-14	24	19	-14
158	-4	19	19	-4
157	2	14	20	-4
157	3	16	0	1
157	10	15	-11	14
157	10	16	17	15
157	18	16	16	11
158	26	16	-9	13
157	24	14	-28	8
158	21	17	-27	2
157	16	21	-17	-2
158	13	20	-6	-4
157	7	20	46	4
158	2	20	61	6
157	3	21	24	10
157	0	21	22	17
158	1	22	19	19
158	3	19	1	10
157	4	16	-16	1
157	4	18	-36	-8
158	-1	15	-19	-12
158	2	15	-11	-4
157	1	18	-38	3
158	2	17	-9	7
158	5	23	40	-7
157	2	23	56	-9
157	0	21	75	-2
157	-1	19	47	-1
157	2	22	-4	2
158	2	20	-14	1
157	5	25	-21	-2
158	6	23	19	2
157	8	22	20	3
157	5	22	-2	3
158	5	20	2	5
158	5	22	-15	6
158	4	19	5	7
157	8	20	15	4
158	8	18	12	4
158	4	18	18	2
157	4	19	37	2
158	5	14	43	4
158	3	12	30	3
157	3	15	30	3
158	2	17	15	4
158	1	15	17	10
158	-3	15	34	13
157	-4	15	10	10
158	-3	15	-8	6
157	-4	14	-7	-1
158	4	15	-26	-20
158	15	18	-36	-19
157	21	19	-19	-8
158	18	17	-6	3
157	19	19	-22	3
158	15	22	-31	-6
157	4	20	-34	-7
158	3	23	-42	-9
158	10	21	-27	-6
157	12	18	10	2
157	5	14	64	3
157	1	9	67	-2
158	0	15	-62	7
158	0	28	-81	14
157	0	18	51	4
157	3	12	49	4
158	7	22	66	-2
157	5	17	71	-3
158	3	16	4	2
157	-3	17	19	2
158	-1	17	-4	10
157	0	18	1	8
158	-5	21	-9	2
157	-8	21	-19	-6
157	-1	17	-8	-9
157	5	12	-38	-4
158	16	14	-21	-4
157	22	18	10	-2
157	17	16	29	-1
158	12	19	27	2
157	12	17	24	6
158	10	14	53	2
158	4	14	100	0
157	3	17	72	6
158	4	21	57	10
157	5	18	78	14
157	4	14	10	9
158	4	11	-52	3
158	3	17	-67	-4
158	0	18	-15	-12
157	-4	18	4	-21
158	-12	19	6	-16
158	-14	17	19	-1
158	-8	23	-4	8
158	-3	18	15	11
158	3	23	2	19
157	10	21	-16	25
157	11	11	-30	15
157	22	15	12	4
157	29	19	38	-8
158	22	17	2	-14
158	17	15	-5	-12
157	14	17	-15	-11
157	11	19	-5	-8
158	5	25	-13	-13
157	1	22	-36	-14
157	2	22	-43	-9
158	3	22	-14	3
157	-1	16	2	7
159	-1	15	-2	8
157	1	21	13	7
157	1	22	14	12
157	3	23	30	12
158	0	18	22	14
157	1	17	0	4
158	2	15	-13	-6
157	3	14	-29	8
157	5	19	6	0
158	1	19	22	4
157	1	18	14	7
158	3	19	18	2
157	0	15	14	9
158	-1	14	19	6
158	-2	19	-4	3
157	8	27	-10	3
158	19	24	10	-1
157	16	22	13	-2
157	8	17	19	2
158	9	19	23	2
157	10	21	39	10
157	8	18	69	5
157	7	24	85	-2
157	7	21	43	6
159	-4	15	16	4
158	-9	18	-15	0
158	-5	19	-37	1
158	3	18	-4	-1
158	9	19	-9	2
158	16	17	-15	2
157	14	17	2	6
158	17	16	21	3
157	16	12	60	0
158	9	16	43	2
157	3	18	13	-3
158	2	19	5	-1
157	4	23	-4	-2
158	0	21	6	1
158	1	21	0	-3
158	1	21	-14	4
158	2	17	-36	13
157	2	15	-34	16
157	1	14	-2	17
158	1	16	5	9
157	4	18	7	-4
157	9	21	-1	-11
158	10	19	-8	0
157	7	23	15	7
157	8	23	24	0
158	1	17	27	-8
158	-3	16	49	-9
157	0	12	35	-10
157	2	16	29	-5
158	3	16	-8	-3
157	3	18	-52	-10
158	5	23	-19	-8
158	4	21	-14	-9
157	4	26	3	-13
157	5	26	6	-8
157	3	20	-12	-4
158	3	15	12	0
158	0	15	-2	8
157	7	15	-16	6
158	12	17	6	4
157	3	14	40	6
158	-9	11	28	10
157	-21	15	11	9
158	-6	21	12	7
157	10	24	-1	10
158	13	19	16	14
157	11	16	18	9
157	1	15	-4	-2
158	10	15	-58	2
158	22	20	-44	-1
157	26	22	60	-10
158	21	19	38	-2
158	16	16	8	-1
158	13	19	23	0
158	10	19	21	3
158	5	18	36	6
157	5	17	15	7
157	4	19	-3	3
158	1	17	-7	2
158	1	16	9	4
157	-1	14	17	-1
158	2	15	17	-4
158	9	16	30	-2
158	8	14	28	-2
158	5	19	20	3
158	2	20	21	0
157	-1	15	20	-1
157	0	16	-1	2
157	-1	16	0	6
157	0	15	24	9
158	-1	13	43	10
157	-1	12	19	8
157	1	17	-39	2
157	-1	18	-73	-4
158	-3	19	-50	-11
157	3	19	-2	-19
159	3	19	27	-15
157	10	18	5	-12
158	22	24	-7	0
157	20	24	10	4
158	16	22	5	1
157	9	23	8	7
157	12	19	10	9
157	8	18	15	9
157	5	16	15	5
158	5	18	0	5
157	3	15	9	-2
158	1	13	14	0
158	4	17	-1	3
158	5	19	7	5
158	3	17	30	9
157	5	17	28	4
157	5	22	22	2
157	0	17	-8	1
158	-9	15	-12	7
158	-10	18	13	2
158	-5	14	-16	7
157	2	12	4	5
158	4	14	53	-12
158	4	14	24	-10
158	11	24	-61	-2
158	19	29	-83	0
158	11	21	3	4
158	4	23	5	6
158	3	21	-9	4
158	3	19	3	4
157	5	19	47	3
158	4	18	97	2
158	3	19	33	1
158	4	15	5	-4
158	5	18	-1	-13
157	5	23	19	-4
157	8	22	31	3
157	8	22	13	2
158	7	22	30	7
158	3	17	11	9
158	4	17	2	5
157	8	18	-8	8
158	11	17	-7	7
157	12	18	11	8
158	3	18	19	7
157	3	15	26	6
158	-4	11	0	11
157	-7	12	-15	3
157	-9	16	-1	-4
157	3	17	6	-2
157	16	17	8	-14
158	7	22	-22	-11
157	13	23	-58	2
158	8	19	-29	2
158	1	19	8	-1
157	3	24	14	-1
157	-8	22	40	-1
157	-8	22	43	-1
158	15	22	35	0
157	24	21	21	5
157	17	19	6	2
157	12	14	18	4
157	5	16	16	6
158	4	18	22	7
158	3	15	33	4
158	4	17	33	-3
157	9	15	-1	7
158	4	18	-58	0
158	3	18	-71	-15
158	1	15	-59	-10
157	4	19	-12	-1
157	0	19	31	4
159	-5	17	80	1
157	-3	19	121	0
157	7	22	47	-3
158	12	22	-44	-4
157	16	22	-31	-7
158	10	20	-7	-1
159	4	15	24	7
158	8	17	-3	12
157	7	19	-69	9
157	5	18	-19	1
157	5	17	-3	4
158	5	17	24	-1
158	7	14	43	9
157	4	14	8	7
157	4	15	15	-1
158	0	13	39	-1
157	-3	11	38	-1
157	2	11	6	2
158	5	15	-15	-8
158	6	13	-36	-13
158	7	14	-42	-11
157	5	19	-21	0
158	3	20	7	8
157	0	19	16	9
157	-3	22	48	10
158	3	23	85	8
158	5	23	56	4
157	7	24	20	4
157	6	19	16	7
158	4	20	-6	5
157	4	19	-4	6
158	5	19	5	8
158	4	21	17	4
158	3	17	33	4
157	0	14	1	3
157	0	18	-12	0
157	3	22	-12	-4
158	0	22	-3	0
158	-4	19	8	1
157	0	16	9	2
158	7	16	11	7
158	12	19	-1	-6
158	13	19	-7	-1
158	14	20	-5	0
158	15	18	4	-5
158	12	19	3	-12
158	6	22	-3	-7
158	4	16	-6	-3
158	5	19	4	6
157	9	19	17	13
157	5	17	18	7
159	-4	16	15	6
158	17	15	-4	4
157	97	18	-11	1
157	146	17	8	0
157	91	18	-5	2
158	51	21	-16	-6
157	1	17	3	-7
158	-104	11	7	-1
158	-187	8	6	0
158	-197	9	6	-1
158	-74	13	6	2
157	32	16	6	5
158	8	14	8	5
157	-16	21	7	4
158	-18	25	11	-1
157	-44	22	10	-4
157	-22	24	9	-3
157	38	26	18	3
159	46	21	17	9
158	28	19	11	6
158	42	18	19	6
158	41	15	52	7
158	45	14	82	10
158	-16	6	51	8
157	-36	4	-25	9
157	112	18	-62	-13
157	157	23	-60	-17
158	110	34	-33	-17
158	36	34	11	-17
157	-34	28	-4	-1
157	-21	29	20	-6
158	-10	25	20	3
159	-27	20	-4	7
157	-33	5	1	12
157	-29	5	-11	12
157	-19	9	2	4
158	-1	11	10	11
158	12	11	16	6
157	25	11	3	4
157	13	17	-3	6
158	15	17	1	6
157	5	19	9	9
157	-23	15	31	11
157	-14	16	33	8
158	-31	23	5	7
157	-70	26	1	4
157	-69	23	36	3
157	22	23	57	2
158	111	21	51	6
158	108	20	29	11
158	91	18	22	-1
158	78	13	22	-10
158	33	17	40	-9
158	-27	18	36	-3
157	-78	20	-46	-7
158	-38	22	-95	-12
158	52	18	-34	-10
157	85	22	23	-5
157	27	29	1	-1
158	-63	22	8	-1
157	-30	18	22	0
157	-42	21	10	3
157	-114	16	44	-2
157	-138	16	69	-6
157	-62	15	41	-2
158	55	16	-28	7
157	92	22	-58	4
158	60	26	-30	-3
157	-2	24	-10	2
158	-23	18	-5	9
157	-44	11	-25	2
158	-25	14	-8	2
158	-12	15	10	8
158	-7	11	6	-4
158	13	14	22	0
158	37	16	16	8
157	83	17	-1	14
157	69	22	-15	7
157	43	21	4	2
158	35	21	34	7
158	3	17	64	11
158	-18	9	51	2
158	-19	15	-3	-12
157	-15	23	-42	2
158	10	19	-49	6
158	5	19	-26	-5
157	16	22	16	-13
158	42	18	49	-9
158	17	23	26	0
158	-2	21	36	3
157	-24	17	23	10
158	-47	15	12	1
157	-63	16	10	-5
157	-106	16	4	2
158	-67	15	13	2
157	8	19	-6	6
157	37	14	7	10
157	94	17	2	8
158	113	16	-9	8
157	125	12	-13	11
158	133	14	6	11
157	104	15	37	-2
157	51	15	31	-12
158	-35	15	28	-11
158	-103	26	-1	4
157	-101	25	5	0
158	-140	19	32	-6
157	-60	15	17	-7
158	115	22	-6	-9
158	82	27	-16	-5
157	83	26	-1	-6
158	128	27	-4	0
158	133	25	1	-2
158	24	25	10	2
157	-55	23	3	6
158	-73	22	5	1
158	-157	15	9	-3
158	-172	-4	13	1
157	-105	-7	-4	13
158	59	1	-8	18
157	48	11	21	14
157	16	22	17	10
158	-1	17	18	0
157	-122	13	27	-2
158	-131	14	5	-14
157	-10	21	-17	-21
159	112	28	-34	-1
158	73	26	5	11
157	63	30	30	16
158	29	21	9	16
157	20	22	12	6
158	24	27	1	-5
157	-1	28	4	-9
158	22	29	0	-3
157	0	27	-2	8
158	8	33	-7	4
157	9	27	-23	7
158	19	25	-4	2
157	23	25	17	1
157	32	22	10	7
158	-31	19	5	4
157	-27	18	31	-1
158	37	27	35	-2
157	-32	11	65	4
157	-47	-24	35	7
157	-36	-45	-47	6
158	86	-36	-4	-10
158	106	-3	17	-14
158	55	39	7	-11
158	39	51	0	-14
158	-19	37	-8	-5
158	3	27	16	-1
158	-7	25	-2	1
157	-1	37	2	1
158	15	39	1	2
157	39	36	0	1
158	80	33	15	4
158	74	28	17	4
157	-1	28	6	-2
157	-56	29	-5	-3
158	-70	29	13	-4
157	-117	22	18	-11
158	-151	7	12	0
158	-36	-4	4	9
158	59	6	24	10
158	43	13	22	14
158	78	15	19	9
157	43	15	28	12
157	13	13	4	14
157	1	6	-10	14
158	7	0	-16	9
158	41	7	-12	-12
158	20	10	-3	-13
158	17	17	-4	4
157	30	18	-22	3
158	110	17	-9	4
158	115	17	24	2
157	22	11	32	1
157	5	-15	31	3
158	-30	-55	2	0
157	-134	-56	-6	0
158	-233	-51	21	4
158	-142	-43	17	11
157	7	-27	15	2
158	-16	-22	2	-1
158	-18	-11	-27	-1
157	-42	-2	-14	-1
157	-29	2	-1	3
158	19	-6	13	0
157	25	5	53	-4
158	69	29	77	-1
157	52	37	29	-4
157	62	47	-20	-5
158	59	55	-27	-6
158	49	62	-14	-9
157	49	66	6	-8
158	33	69	5	-2
158	35	63	6	3
158	-12	52	19	6
157	-37	49	36	6
157	-39	46	62	-1
157	7	42	48	0
157	32	45	-30	12
157	-17	54	-94	13
159	-80	48	-31	9
157	-53	46	-16	10
158	58	52	-26	-5
158	118	45	-5	1
158	190	41	-42	6
157	236	36	29	-4
158	192	29	64	4
157	60	22	49	-1
157	-56	22	52	0
158	-134	27	35	0
157	-179	26	38	-4
157	-129	22	6	0
159	-36	25	5	-1
157	-52	34	13	-7
158	-29	41	9	-11
158	33	41	-15	1
157	64	38	-16	1
157	17	38	9	11
158	-69	34	12	9
157	-42	17	26	-1
157	-81	5	17	2
158	-154	-18	7	1
158	-70	-21	-5	3
158	106	4	-13	12
157	121	13	3	6
157	107	12	18	2
158	102	-4	18	4
157	-27	-19	-14	-6
158	-113	-8	-26	-7
157	-93	-7	1	6
158	-25	0	6	10
158	-16	47	-11	3
158	39	81	-16	-5
158	60	30	-22	-9
159	71	5	-28	4
158	83	31	13	6
158	13	17	63	-4
157	-23	22	52	-10
158	-20	28	24	-14
157	42	27	15	0
158	27	29	-11	0
158	0	25	-18	6
158	-3	23	-4	4
157	-1	12	15	4
158	46	7	16	2
157	48	4	13	-2
157	47	5	19	3
158	41	10	31	-5
157	31	21	62	3
158	5	26	96	12
158	2	25	111	6
158	47	14	23	11
157	51	10	-83	22
157	-12	1	-60	11
157	25	7	-61	3
157	38	-11	-61	4
157	-65	-27	-16	4
158	-72	14	-15	2
158	-42	-1	-5	-3
158	-39	-20	3	-3
157	-22	-5	13	-2
158	12	35	9	-2
157	-62	68	0	-1
158	-79	55	5	1
157	-41	46	17	6
157	-18	45	47	4
157	1	27	52	3
157	1	10	23	4
158	23	8	-12	2
157	16	9	0	-1
157	25	14	15	-6
157	19	14	-11	-7
158	42	17	-3	-5
158	37	14	29	1
157	-6	15	45	-3
157	43	14	11	-3
157	72	10	5	-3
157	30	11	14	4
157	42	11	9	8
158	40	17	22	2
158	-39	13	-1	1
158	-109	5	-23	-3
157	-37	8	-20	-1
157	49	18	-6	9
157	-1	15	-12	6
158	-5	14	-6	4
157	-2	8	47	5
157	12	10	50	-2
157	2	14	8	-6
157	-19	9	9	-6
158	8	19	1	-1
158	14	21	-34	-3
158	19	17	-30	-1
158	-15	25	-15	7
157	-32	32	-5	6
158	-20	37	0	10
157	-32	33	14	4
157	-36	22	13	-2
158	-12	17	-4	2
157	27	5	19	9
158	70	-3	42	6
157	102	18	25	-7
158	90	27	18	-6
157	66	10	15	8
157	127	1	22	7
158	180	12	38	3
158	107	21	10	4
157	32	18	-48	3
158	-95	21	-24	0
157	-172	16	41	-3
157	-141	14	29	-3
157	-106	17	11	-4
157	-43	19	-8	4
157	46	28	17	3
158	115	70	23	0
157	30	89	-14	-1
158	-39	35	7	0
157	-105	18	20	4
158	-107	21	28	6
158	-19	-5	-28	3
158	-57	4	-58	13
157	-96	10	0	12
158	-83	12	7	7
158	-16	11	13	-4
158	39	17	21	-16
158	78	14	9	-14
158	98	6	6	-4
157	142	4	5	0
158	236	9	25	-2
157	207	22	31	4
158	90	16	24	2
157	34	6	5	7
158	3	0	-6	1
158	-115	5	12	-10
158	-191	8	19	-2
157	-81	11	25	0
158	-35	-1	18	0
158	-97	-6	-15	6
158	-71	14	-24	8
158	-64	19	6	6
158	-48	25	33	4
157	-21	25	40	3
157	21	31	2	6
157	85	29	-48	8
157	112	22	-36	6
157	129	24	-7	-7
158	83	36	1	-7
158	85	34	25	0
157	187	19	50	-6
157	114	17	48	2
157	-21	-7	30	-2
158	-91	8	17	-6
158	-259	59	32	-2
158	-274	37	25	4
158	-81	-13	24	6
157	104	5	8	-1
158	63	44	-32	-2
158	65	62	-26	-5
157	91	38	-1	-1
159	26	22	10	0
157	41	31	5	6
157	-35	18	-6	4
158	-29	18	-20	7
158	-12	16	-10	7
157	-13	13	10	4
158	30	-1	7	11
157	48	-12	16	17
157	74	1	58	9
157	32	22	66	-8
157	10	29	-30	-8
158	-8	26	-98	-2
158	-58	16	-19	-5
158	-107	5	14	-14
157	-101	11	20	-13
159	80	16	47	-5
158	97	33	-11	1
158	18	43	-27	6
157	-12	28	6	3
157	-53	29	7	4
158	15	24	7	7
158	-2	2	10	10
158	6	-5	-3	20
158	3	9	4	25
158	5	-4	31	25
157	22	-7	37	3
158	1	16	27	-23
158	16	0	4	-22
157	0	-24	-25	-9
158	26	-38	-8	-8
157	36	-3	7	-6
158	11	75	-8	-5
158	-20	64	9	3
158	-26	6	39	11
158	-28	33	41	8
157	4	52	19	15
156	57	52	25	16
158	38	63	31	15
158	19	45	42	14
158	17	31	34	6
158	37	19	-11	-11
158	24	15	-34	-11
157	24	12	-25	4
159	32	3	5	7
158	11	4	-19	-1
158	40	9	-25	-3
157	64	21	-13	-6
157	5	26	-9	-3
158	-66	19	13	0
157	-40	13	37	4
157	-11	11	43	0
157	-44	11	15	-4
159	67	13	10	3
158	41	9	22	-7
157	-91	7	-16	-11
157	15	15	-32	-4
157	37	22	6	-6
158	-36	22	19	-3
158	-55	16	34	6
157	57	9	52	4
158	94	-5	72	2
158	35	-11	15	6
157	38	-6	-71	12
157	-18	1	-3	3
158	-126	18	66	3
158	-198	26	55	-3
158	-129	27	14	3
158	-90	34	-58	9
157	-88	35	-16	-2
158	-54	38	5	1
157	-14	63	-70	8
158	81	41	-32	14
157	122	16	-3	0
158	162	29	-25	-10
158	132	17	-19	-5
158	65	17	-2	3
157	24	9	17	-1
159	31	3	17	-6
158	55	11	7	-1
157	45	-13	21	4
158	36	-19	37	-4
157	-22	3	25	-6
157	-16	-3	19	0
158	-13	21	32	1
158	-16	69	41	2
157	-7	52	15	2
158	22	44	-13	6
157	29	46	10	6
158	3	37	-8	0
158	16	33	-11	7
157	19	23	34	6
157	50	16	55	-3
158	68	9	59	6
157	75	6	-28	17
158	40	15	-82	16
157	-8	14	5	3
157	-86	9	16	2
158	-228	8	-14	-7
158	-224	12	8	-14
158	-41	24	15	6
158	1	27	44	12
158	23	26	20	5
158	116	21	-10	-2
158	134	9	10	-4
158	158	-4	15	1
158	88	4	0	1
157	-28	7	-33	-1
157	-71	8	-63	-2
157	-52	8	-37	-13
158	-93	-12	42	-9
158	-80	-10	28	-3
157	15	-2	13	-5
157	46	-3	53	0
157	71	4	58	-1
158	35	27	52	-2
158	11	85	-2	3
157	54	84	2	2
157	0	26	15	2
158	-56	36	15	7
157	-27	36	61	3
157	100	17	40	7
159	120	27	-52	13
157	24	21	-78	12
158	-33	16	-3	12
158	-111	16	4	6
157	-93	24	-6	-2
158	-75	19	10	8
158	-32	12	9	7
157	-22	-2	10	-7
157	0	-8	5	-13
157	46	6	6	-8
158	45	11	-1	1
158	47	15	8	1
158	2	15	1	0
158	17	17	-2	-2
158	38	22	10	2
157	84	22	21	-3
158	70	26	44	-9
158	44	30	26	-4
157	38	17	-27	-1
158	42	-1	-29	-6
157	85	-2	4	-2
157	29	11	16	5
157	30	17	17	4
157	-4	17	5	8
157	-95	11	7	14
157	-162	10	19	18
158	-134	16	24	21
157	10	18	15	7
158	16	14	0	-20
158	27	1	3	-15
157	18	-10	15	2
158	-6	-13	18	0
157	-26	33	10	6
157	-99	93	15	-1
157	-10	62	25	-7
158	41	31	19	2
158	52	41	2	2
158	71	36	-21	4
158	1	49	-23	-1
157	33	30	-15	2
159	97	7	-7	4
158	97	0	13	4
158	98	-4	26	7
157	42	8	19	4
157	-9	6	20	-1
158	-88	11	48	2
158	-215	11	30	6
158	-240	19	-25	11
158	-190	28	-26	4
158	-4	34	18	-7
158	90	41	2	0
158	130	41	-35	4
157	172	20	-2	2
158	102	-1	55	1
158	91	8	64	0
157	17	18	-9	-10
158	23	21	-59	-6
158	25	11	37	0
157	-5	3	74	-5
158	6	12	-26	9
158	-18	0	-54	7
158	-1	4	-25	-2
158	-11	13	-39	4
158	16	12	-16	-9
158	7	18	20	-10
157	-14	22	8	5
157	-34	26	35	2
158	-39	25	22	0
157	36	27	16	-2
157	28	38	23	-1
157	21	33	14	-1
158	62	8	27	2
158	32	-13	29	4
157	-64	-1	29	3
157	-55	41	12	6
157	45	42	-11	2
158	18	24	-16	4
158	-5	27	4	4
157	-24	27	3	0
157	-85	2	26	0
157	-95	-22	49	-1
158	-27	-26	21	0
158	53	-15	-33	8
157	82	1	-35	4
158	108	17	0	2
157	106	65	-11	14
158	143	59	13	2
157	137	14	13	-9
158	77	25	8	2
158	-48	17	5	11
157	-186	15	-16	9
158	-235	31	5	-4
157	-138	34	11	-6
157	-37	31	16	-6
158	-59	19	15	2
157	-47	16	28	9
158	-94	7	26	0
158	-42	7	-10	2
158	78	15	-19	2
158	102	18	-15	6
157	106	10	-17	0
158	98	-1	-12	4
157	113	-2	9	5
157	71	4	25	1
157	67	28	39	4
158	41	39	40	2
159	-15	24	24	0
158	9	17	15	-4
158	5	25	6	0
158	-13	19	0	8
158	-28	14	-7	2
157	-37	17	13	-1
158	-24	17	25	2
157	-1	15	30	0
158	13	14	28	-7
158	17	15	13	-10
158	59	19	39	-10
158	96	15	19	-5
157	69	9	-9	4
157	38	-4	38	1
157	22	-14	54	-1
157	-41	3	-19	-1
157	-125	24	-91	0
157	-114	31	-35	4
158	13	45	-10	4
157	32	58	-42	9
157	-26	57	-17	8
157	-43	52	-9	10
158	-74	46	3	7
158	-39	36	11	2
158	-14	17	57	0
158	53	8	98	-2
158	121	9	27	4
158	84	4	-85	9
158	69	10	-61	7
157	-35	23	21	-2
158	-231	37	-4	0
157	-264	24	5	2
158	-70	10	12	3
158	14	8	17	1
157	59	5	23	6
158	178	30	0	-1
157	183	18	8	-4
158	169	-12	-1	-1
158	116	12	4	-12
157	10	11	1	-3
159	-87	5	38	-1
158	-47	11	74	0
158	9	11	17	-4
157	-29	20	-31	0
158	-37	13	-8	13
157	-20	7	2	4
157	20	-2	-11	0
157	25	5	13	-4
157	-40	16	17	-5
158	-64	11	16	-1
158	-11	18	18	9
158	23	19	27	9
158	40	24	34	0
158	87	25	27	-10
158	112	19	26	2
158	96	26	1	2
158	44	35	-12	-12
158	13	37	-7	-9
157	36	31	-12	0
158	56	32	-32	7
158	31	20	-33	8
157	-4	2	-13	7
158	-84	-5	-1	3
158	-186	-5	19	1
158	-195	-16	27	7
157	-29	-25	16	10
159	61	-23	30	4
158	50	27	38	4
157	80	109	24	1
157	40	99	27	3
158	16	9	27	5
158	-24	-9	13	4
158	46	32	-15	6
158	123	41	-2	-2
158	60	38	-2	-3
158	32	20	-18	-4
158	-55	27	24	-5
157	-167	17	17	8
158	-170	12	-15	8
157	-61	19	-1	1
158	7	16	40	-6
158	-16	8	52	0
157	-14	5	-22	15
158	-54	13	-50	14
158	-31	5	-4	11
158	46	12	-25	7
158	47	15	-32	0
157	66	24	4	-6
157	-47	21	-8	-9
157	-113	2	8	-7
158	64	-11	23	-2
157	140	-15	38	-5
158	79	1	39	-6
157	68	22	6	-6
158	106	33	4	-1
157	166	31	39	4
158	146	23	79	4
157	36	31	66	4
157	-16	38	-32	13
158	-31	39	-96	11
158	-61	38	5	-6
158	-157	36	29	-3
157	-102	39	7	-3
159	32	40	33	-2
158	33	30	9	8
158	36	32	25	3
157	-2	47	28	7
158	-1	17	20	10
158	7	2	6	6
157	3	6	-29	12
159	23	-11	-29	4
158	-6	7	4	-9
157	-17	11	-32	-2
157	-36	20	-43	-9
157	-24	21	21	-13
158	-21	15	12	-12
157	2	18	7	-25
158	31	13	15	-14
158	95	11	15	2
158	138	7	24	5
157	86	11	31	4
158	40	12	36	6
158	-41	11	8	6
157	-150	10	-6	9
159	-197	12	-1	12
158	-88	22	14	10
158	-13	26	14	13
157	-22	18	27	15
157	-36	5	28	15
158	-81	7	-12	-6
157	22	10	-24	0
158	75	16	-4	-3
157	37	40	-10	-4
158	58	24	15	4
157	68	-3	39	-3
158	48	11	-1	11
158	31	9	-14	-8
157	62	-18	-11	-13
158	30	-13	0	-8
157	21	14	-16	0
158	36	12	2	4
157	-7	21	30	-5
158	6	82	10	-4
158	-9	87	15	2
158	-17	19	6	7
158	-11	17	14	4
157	-24	26	9	8
158	-34	17	-10	0
158	-49	26	-5	4
158	2	15	15	5
157	22	21	28	2
158	27	15	37	1
157	11	2	26	1
157	-54	-2	-46	0
157	-27	8	-53	2
158	93	16	16	8
157	79	7	19	4
158	-7	-10	21	6
158	9	-11	33	4
158	-2	24	21	2
158	18	33	19	0
157	97	23	17	-5
157	162	15	15	-4
157	98	19	2	2
157	22	62	-2	3
158	-10	79	-10	5
157	-94	41	17	-1
157	-168	13	74	4
158	-123	17	83	7
158	28	9	-17	14
157	32	9	-108	12
158	2	9	-10	-13
158	-9	21	35	-15
158	-5	29	35	-12
157	19	21	34	-11
157	12	15	-31	-3
158	77	9	-1	2
157	56	-3	17	11
157	33	-1	6	10
158	-17	6	-3	2
157	-171	14	-40	-1
158	-170	30	3	-3
157	-29	41	47	-11
158	4	45	28	-6
157	-50	37	23	-4
158	1	29	-4	2
158	122	18	-22	7
158	179	25	-14	1
157	146	27	-20	-1
158	89	10	9	-1
157	-79	14	14	5
157	-172	-1	15	6
157	-29	-8	13	4
158	19	7	6	12
157	5	4	54	8
157	23	23	66	11
157	42	35	38	6
158	88	23	5	4
158	106	16	8	6
157	74	21	30	-6
158	15	17	-24	-15
158	-20	7	-32	-6
158	-24	14	-8	0
157	-45	25	-4	-9
158	-69	23	-3	2
158	-45	15	-5	-2
157	37	10	22	3
157	99	-12	36	2
157	77	-1	5	-3
158	38	12	-79	9
157	-47	-1	-63	2
158	-162	7	5	1
157	-180	19	-2	6
157	-78	22	18	0
158	36	14	28	4
157	33	11	18	5
157	117	40	6	7
157	83	86	-4	14
158	-1	66	5	0
157	39	1	13	-6
157	-40	26	15	-3
157	-62	40	9	-6
158	-15	24	19	-2
157	-55	30	17	2
158	-129	13	6	-3
158	-63	19	2	-2
158	-23	11	3	1
158	27	11	9	0
158	150	0	13	3
157	195	-8	21	9
157	165	1	5	13
157	68	-4	-8	9
158	-1	-5	12	-1
157	-64	-6	39	-7
158	-29	7	47	2
158	37	25	67	6
157	1	29	72	2
157	-12	28	-12	13
159	11	27	-82	10
157	5	29	-29	0
158	10	45	-13	-6
157	1	54	-17	-12
158	-1	30	1	-4
158	16	1	-11	0
157	9	-11	14	-1
157	9	6	1	0
157	3	32	5	-3
157	-22	19	35	-5
157	-88	-2	53	-6
157	-112	1	32	6
157	-52	15	-4	9
158	-6	18	42	0
159	19	24	30	0
158	39	30	-24	4
157	75	28	-16	11
158	113	34	12	11
157	141	31	11	11
158	158	36	1	7
157	75	46	17	4
158	18	43	18	3
157	-11	25	4	2
158	-124	11	-54	-10
157	-182	13	-47	-19
157	-87	18	0	-4
157	22	0	-1	9
157	17	0	13	4
157	52	25	31	-3
157	23	-1	60	-3
157	22	-5	11	0
158	-20	34	-43	11
157	-135	23	19	8
158	-93	14	45	2
157	-36	19	10	10
157	-8	17	10	2
158	-4	7	-1	-3
158	36	-4	-6	-9
157	47	6	-7	-8
158	-6	23	-1	-11
158	-31	27	33	-11
158	-4	26	15	2
158	-33	26	-7	6
157	-73	30	-1	6
158	27	34	10	2
158	97	28	10	0
157	25	24	15	-2
158	56	24	25	2
158	87	-1	23	1
157	98	-22	22	-1
158	133	-13	13	0
157	92	21	7	9
157	37	67	1	12
158	-58	40	8	11
157	-53	-11	14	6
158	-25	7	10	4
157	-36	8	6	3
157	28	11	0	-2
158	117	16	21	-2
158	112	13	67	6
157	117	17	74	10
157	86	17	-35	-3
158	-71	30	-138	-8
157	-145	27	-56	-12
158	-47	18	4	-5
158	15	18	-7	6
158	-64	33	20	3
158	-36	53	8	8
157	-118	42	21	4
157	-140	31	33	2
157	-31	24	28	8
158	-24	8	17	2
157	-15	14	-12	-2
158	-24	18	10	-2
157	21	14	25	-5
158	59	11	37	-2
158	88	10	60	4
158	88	1	-12	3
158	41	1	-85	-2
157	-91	-4	-17	-6
157	-112	-12	13	2
158	-48	-10	-2	-1
158	-49	-7	17	6
157	-1	6	2	10
157	53	40	16	4
158	169	58	9	-7
157	135	39	7	-11
157	72	11	13	0
158	35	8	-1	-2
158	31	41	23	-4
158	117	46	44	-4
158	84	9	47	4
157	27	-7	52	-5
158	-9	-2	42	-7
157	-50	0	-47	12
158	-142	2	-97	12
158	-184	17	-26	10
157	-83	72	8	7
157	33	69	6	9
157	10	47	33	8
158	15	51	32	2
158	7	35	16	0
158	-25	26	1	-2
157	29	11	19	-7
158	36	8	23	-4
158	49	-4	4	-4
158	22	-5	-1	-5
157	9	12	5	0
158	10	5	28	-1
157	10	3	5	3
157	-7	13	-17	8
157	-24	10	-11	6
158	-3	10	14	9
158	-7	13	15	6
158	4	15	5	2
157	5	18	24	3
158	4	15	23	7
158	-21	15	16	0
157	12	15	-19	-2
157	60	17	-25	-8
159	24	17	6	0
157	52	18	12	6
158	39	19	46	-2
158	-25	17	67	2
157	0	8	-16	-3
158	73	-8	-98	3
157	51	-10	-31	2
157	26	5	28	6
158	79	9	18	11
157	42	4	36	1
157	-31	29	-11	-4
157	-125	92	-8	-9
157	-140	85	30	-3
158	-151	14	30	-1
158	-162	13	24	-5
157	-18	17	24	-2
158	75	10	14	5
158	157	24	-34	1
158	156	23	-25	6
158	98	28	6	2
157	59	21	2	-2
157	25	25	13	-8
158	13	23	20	-6
157	-32	24	21	3
157	-21	24	40	0
158	-9	10	19	15
158	-8	-3	-20	31
158	-23	-13	-32	12
158	-36	1	-20	-6
158	-31	3	-8	4
157	-43	8	-1	6
158	-36	14	27	-13
158	55	17	60	-14
157	140	27	70	-8
158	44	42	19	1
157	4	48	-53	16
157	4	27	-23	10
157	-95	15	1	1
157	-177	8	-4	3
158	-160	8	33	-1
158	-38	28	42	1
157	14	40	38	-5
157	97	23	30	-6
158	146	14	22	3
157	156	27	18	0
157	215	16	5	0
157	147	8	-4	3
157	-2	19	-7	3
157	-74	9	2	7
157	-71	21	-6	0
158	-137	27	-6	2
158	-90	33	-6	4
158	-6	39	13	4
157	-94	30	21	7
158	-93	29	16	8
158	-129	24	12	15
157	-85	15	-14	11
158	18	0	-16	-4
158	43	-1	-7	-5
157	160	9	31	-10
157	196	24	61	-12
158	202	12	-23	-3
158	106	-9	-86	1
158	20	3	-10	0
158	25	38	13	-1
158	36	33	-10	-2
158	49	0	17	-4
157	26	-19	2	4
157	47	-14	1	0
158	-29	7	6	1
157	-77	7	19	6
158	-41	24	27	1
157	-80	35	6	4
157	-169	33	-16	6
157	-132	32	-12	2
157	-14	60	24	-8
158	-2	97	32	-22
157	30	34	41	-13
158	-18	7	33	11
157	-39	18	3	19
158	-13	0	-20	6
158	4	12	-23	-5
158	86	10	-9	-7
157	74	6	20	1
158	106	5	47	3
157	48	-1	32	-1
157	-38	-11	-12	7
158	-29	-8	-39	4
157	-18	4	7	3
158	27	-2	24	-2
158	66	-5	-10	-2
157	79	-17	-3	3
158	-9	-16	33	3
158	-81	13	82	0
157	-72	60	43	3
157	37	66	-33	14
157	32	43	-32	-1
158	-7	61	0	-18
157	40	67	-10	2
158	16	27	5	8
158	13	-10	4	5
157	-89	-18	2	12
158	-99	-19	20	8
158	-27	-6	13	5
157	-13	-9	9	0
158	-8	-18	-9	6
158	3	79	8	10
158	95	141	30	10
158	102	74	41	7
158	59	24	46	1
157	39	33	20	-1
157	45	50	5	-14
157	79	22	10	-10
157	47	-2	-13	6
158	2	5	-15	2
158	-40	-1	8	-5
158	-24	4	-2	-8
157	12	5	14	-2
157	18	13	4	3
158	33	15	-12	10
158	19	9	-12	8
158	67	7	25	-4
157	80	16	92	-5
158	-15	19	30	-8
158	-54	8	-72	-1
157	-85	9	-44	4
158	-134	-5	20	6
158	-145	0	-3	11
158	-24	29	-2	7
157	8	17	-9	-1
157	-28	-5	-7	-3
157	3	8	22	-1
158	23	2	21	-6
158	108	10	13	-7
158	55	24	-17	0
158	14	13	3	2
158	-37	-6	12	-2
157	-151	-17	16	-6
158	-73	-9	37	-4
158	33	7	22	-1
158	106	44	-9	7
158	108	92	-21	7
158	59	82	11	3
157	-35	1	35	3
158	-91	5	48	-3
157	-51	17	15	-3
158	-52	-1	-42	-7
158	-17	17	-30	-1
158	52	28	14	3
158	99	48	1	4
158	129	35	-8	7
157	98	30	-2	4
158	60	32	-5	15
158	62	23	18	14
158	79	33	35	9
157	7	38	56	0
157	-22	41	19	0
158	45	28	-37	9
157	74	19	5	-4
157	47	21	32	-7
157	0	16	7	4
158	-35	10	18	0
158	-156	9	12	-11
158	-202	6	11	-2
158	-69	-3	13	4
158	24	9	11	0
157	0	17	14	-4
158	21	10	-9	-5
157	10	6	2	3
157	2	0	20	4
158	16	8	3	-2
158	-11	13	-19	-8
158	14	17	-38	3
157	18	22	-19	6
157	54	17	8	4
158	96	15	33	7
158	52	11	82	7
157	50	8	85	14
158	1	2	-29	11
158	-183	10	-119	-1
157	-224	25	-22	-6
157	-38	27	23	-6
158	36	15	1	-1
157	-9	16	31	0
158	9	27	5	-1
158	-19	26	-3	0
158	16	21	-6	2
157	45	10	13	-2
157	45	15	19	2
158	50	16	18	-7
158	-2	17	31	-12
157	-44	26	12	9
158	-70	25	16	9
158	6	18	15	10
158	48	11	15	12
158	91	18	11	9
157	181	25	15	3
158	202	32	10	2
157	162	26	-4	0
158	67	19	-9	-7
157	-33	18	7	-5
157	-75	18	21	4
157	-40	34	12	-6
158	-58	17	17	-8
157	-58	-7	14	3
158	5	27	12	8
158	78	81	5	15
158	88	63	-4	17
159	19	-8	-3	9
158	1	-4	-5	6
158	-64	-8	-12	0
157	-149	-4	-1	-7
158	-143	-3	17	5
158	-35	-36	6	13
157	-8	-27	19	9
157	-22	-8	39	-4
157	34	55	-16	-5
158	34	62	-90	4
158	24	56	-55	-2
157	-5	49	22	0
158	-8	47	23	-2
158	-45	54	28	-7
157	-54	33	45	-6
157	25	32	41	-3
157	36	22	43	-9
157	19	14	49	-10
157	33	9	62	-4
157	72	17	57	-8
157	89	9	19	0
158	57	-16	-26	5
158	27	-12	-7	-4
158	-53	-13	3	-3
157	-135	-30	-51	-2
157	-142	-40	-34	3
157	-96	-17	1	2
158	-37	43	-23	4
157	-21	24	-11	7
157	-27	-9	23	3
158	25	65	58	0
158	7	66	17	-1
157	-18	22	-73	6
158	71	43	-34	2
157	129	39	25	3
158	225	31	-7	7
158	304	26	20	2
157	275	31	24	-2
157	209	35	1	2
157	67	22	8	2
158	-109	17	-7	-1
157	-202	11	13	0
158	-127	15	15	4
158	-81	7	15	8
158	-140	7	7	5
158	-133	7	2	0
158	-123	12	20	0
157	-16	24	18	6
158	23	25	14	11
157	-24	20	5	15
157	1	0	12	7
157	15	-23	17	-1
158	10	-25	6	-7
157	-41	-23	-5	-5
158	3	6	1	-2
157	31	62	6	-2
158	37	41	1	0
157	48	50	7	-4
157	43	93	10	2
158	47	74	9	4
157	36	52	13	5
157	24	36	16	4
158	-46	15	23	1
158	-92	-7	30	7
158	-167	-5	43	28
158	-138	-13	51	32
158	-42	-29	38	8
158	-23	-12	-32	-5
158	125	45	-67	-22
158	262	66	-3	-30
157	284	7	27	-14
157	212	18	41	-17
158	107	18	13	-6
157	18	1	-55	2
158	-40	11	-15	-4
158	-29	1	22	-4
157	-70	11	-4	3
158	-91	0	11	4
157	-59	-1	0	6
158	-32	15	-16	3
157	-16	15	10	9
157	7	23	8	14
157	19	16	16	1
157	24	15	6	6
157	106	18	12	6
157	131	19	52	0
157	40	21	87	-7
157	-24	13	37	0
157	-69	14	-92	8
158	-118	22	-82	-3
158	-131	21	8	-6
158	-64	22	-8	2
158	-6	26	-8	0
157	-54	28	17	0
157	-93	21	15	2
158	-106	-6	19	0
158	-4	-21	2	5
158	26	5	14	0
157	0	40	19	4
158	41	36	19	12
157	3	22	15	16
158	20	24	5	18
157	-5	29	15	-3
157	-31	28	11	-12
157	1	28	17	-7
157	57	23	25	-7
157	69	30	6	-6
157	66	35	-7	1
157	95	29	1	1
157	26	22	15	3
158	30	6	29	4
157	61	-8	29	2
158	-9	-23	16	1
158	-75	-18	12	-3
158	-50	-7	5	-6
158	-25	-30	-21	-6
157	-12	-17	-31	4
158	-88	1	3	3
158	-94	7	19	0
159	30	101	8	6
158	38	150	4	9
157	78	79	-18	2
158	181	62	-13	4
158	318	89	0	15
158	278	72	-1	11
158	137	30	15	14
157	0	8	11	6
157	-175	7	10	-16
157	-174	-13	6	-23
158	-102	-10	-12	-7
157	-17	-11	39	-4
157	26	7	89	-9
157	34	1	24	-6
157	-17	-17	-62	3
157	-43	8	-40	10
157	-77	7	28	4
158	-151	7	16	8
157	-97	-3	31	-1
158	-14	5	24	-4
157	1	6	2	-1
157	-14	-9	-5	2
157	-20	1	-24	8
158	-17	23	4	2
157	-1	55	8	4
157	-16	34	61	0
158	40	-7	94	-2
158	112	31	30	-1
158	80	30	-96	2
158	56	15	-93	-5
158	55	19	23	2
158	17	28	9	9
158	-15	38	21	9
157	-37	10	3	18
157	-55	13	-18	11
157	-18	4	5	-1
157	41	17	3	0
157	40	19	17	8
157	-90	22	0	4
157	-122	28	8	-1
157	-43	26	6	4
157	-34	40	10	-2
158	8	28	19	-2
157	167	17	31	3
157	278	-4	42	-3
158	173	7	17	-7
158	59	41	0	-6
158	11	35	-7	1
157	5	4	2	6
157	-4	-6	11	10
157	3	4	12	13
157	52	-6	11	-4
157	0	-6	18	-15
158	-59	-5	31	-8
157	-147	-1	48	-1
158	-184	15	33	1
158	-100	26	12	-4
157	-27	48	14	-4
158	-25	61	4	4
158	9	47	-10	16
158	46	40	6	16
157	41	43	2	10
157	33	33	-51	-2
157	-5	25	-21	-7
157	7	24	8	6
158	0	29	-9	-8
157	-14	23	-20	-5
158	-23	18	-9	4
157	-32	13	12	0
157	-33	11	1	2
157	-24	8	15	4
158	19	0	6	12
158	59	3	5	0
158	125	7	21	-4
158	96	8	36	1
158	73	9	40	2
158	61	13	16	4
158	-31	10	13	0
157	-1	10	-40	4
157	46	19	-62	7
157	-8	25	18	0
157	-40	25	15	0
157	-34	12	7	1
158	-29	15	20	0
157	17	18	19	4
158	-5	-2	18	-4
158	-64	6	-32	-8
158	-81	15	-15	-8
158	-73	12	18	2
157	-62	14	31	0
158	-69	28	84	-3
157	-14	72	111	-6
158	92	47	29	2
157	218	0	-105	14
158	186	25	-60	8
158	111	15	4	10
157	98	14	-4	9
158	56	22	31	0
158	-27	11	21	0
158	-89	15	16	7
157	-40	3	-7	8
158	33	10	-22	9
158	33	5	10	7
157	-35	8	13	6
157	-68	8	9	6
158	-120	8	6	-6
158	-137	6	4	-12
158	-44	7	0	-17
157	33	-5	18	-3
158	47	-18	41	7
158	72	22	43	12
157	38	19	25	13
158	-5	2	-1	2
158	31	-18	2	-5
157	-34	-27	-3	-21
158	-66	103	-27	-19
157	1	179	-15	-7
158	62	90	-1	-2
158	28	41	6	-1
157	-13	41	8	-2
158	3	37	7	-2
158	-11	15	9	3
158	-30	1	4	9
157	60	-2	5	5
157	142	-7	14	6
158	41	10	32	11
158	27	21	37	7
158	-11	11	25	9
158	-87	-18	9	1
158	-105	14	-8	-6
158	31	52	-12	-8
158	102	34	-1	-5
157	34	6	12	0
158	59	4	24	0
157	-44	3	28	0
157	-79	-4	25	6
157	-57	-7	10	2
159	29	1	10	0
157	44	7	11	9
157	4	-1	-2	7
157	11	24	-11	0
157	-14	57	-2	9
157	54	52	34	2
157	-13	48	-7	7
157	-51	27	-78	16
159	-48	-9	-26	12
157	-28	-1	20	6
157	60	4	29	2
158	41	-15	35	5
158	41	-9	1	0
157	45	14	-7	-12
157	-9	18	-19	-4
158	-36	43	5	-5
158	-1	86	28	-6
157	-7	48	44	-2
157	2	-16	99	-8
158	24	-6	47	4
158	16	6	-47	13
158	51	16	-70	16
158	30	8	-15	10
157	-19	16	-6	4
158	-24	27	6	-5
158	-13	22	22	-4
157	-47	35	17	-1
158	-113	24	29	4
157	-69	19	8	3
157	23	11	2	-5
158	82	0	-1	-3
157	183	-6	14	1
158	218	-9	-18	13
157	169	-5	-17	3
158	111	-14	13	-13
157	-34	-6	-11	-16
158	-196	27	-1	-10
158	-199	75	24	-2
158	-49	92	45	-4
157	-29	55	30	-1
158	-33	43	-2	2
158	-14	48	-39	5
157	-49	37	-39	-1
158	-28	18	-9	-1
158	-22	17	6	1
157	-2	15	22	6
158	10	10	22	15
158	20	14	25	8
158	41	14	17	5
158	44	12	14	4
157	17	14	14	3
157	-21	8	-1	3
158	-50	-2	4	0
157	-30	6	2	-13
158	-23	10	4	-8
157	36	10	20	11
157	185	11	16	5
157	160	6	8	9
157	79	5	10	2
157	19	4	22	-1
158	29	8	60	-9
158	43	13	80	-10
157	6	16	19	2
158	-9	24	-89	4
158	-113	28	-86	4
158	-158	23	10	4
157	-72	21	23	14
158	28	18	17	7
157	8	16	28	7
158	6	24	15	4
157	5	21	45	-9
157	15	32	63	-13
158	-13	36	5	9
158	-43	25	-75	18
158	64	6	-10	4
159	99	-19	23	5
158	48	8	-52	7
157	-4	41	-1	-5
157	75	45	23	-1
158	-71	26	12	1
157	-240	20	15	-9
157	-67	27	6	-3
157	26	-3	14	-2
158	78	-32	6	3
158	93	-26	7	5
158	85	-11	9	2
157	87	-1	25	1
157	58	0	36	-5
158	58	-2	15	-6
158	17	53	-23	2
158	5	18	-30	8
157	14	-47	15	8
158	9	24	23	14
158	26	117	32	10
158	22	169	35	-2
157	-5	90	24	2
157	-15	38	-2	1
158	-39	46	-47	-4
157	-68	31	-48	-3
158	-13	22	-30	1
158	42	-5	-6	3
157	-3	15	-1	-4
158	-61	25	19	-12
158	-51	9	30	-7
158	-164	-9	22	-14
158	-308	6	25	-3
157	-164	34	13	8
157	-5	18	26	2
158	95	2	26	6
158	159	-1	24	-3
158	187	-3	4	4
157	185	-5	-16	5
159	133	5	5	1
157	71	7	12	9
158	40	4	16	8
158	52	1	26	13
157	-6	3	60	2
157	-24	9	70	-7
158	-8	15	-6	7
157	-6	19	-60	17
158	10	19	-28	2
157	9	22	-19	-9
157	-7	17	-17	-6
157	-27	13	15	1
157	-24	12	9	7
158	-28	17	15	3
158	-9	22	13	3
157	-13	25	13	-6
158	-21	19	52	-4
157	2	13	40	-2
158	45	14	-59	-1
157	33	15	-102	2
158	-52	8	0	-1
158	-38	15	19	4
157	-48	18	16	6
157	-102	1	48	7
157	-47	22	40	-11
157	29	21	40	-10
158	40	1	15	-2
158	54	-9	16	-9
157	56	-6	-27	5
158	24	47	-27	1
157	34	52	23	4
157	47	32	15	4
157	61	19	35	3
157	57	17	36	10
158	61	30	38	6
158	49	26	10	1
157	-11	11	-22	-5
157	-17	40	-31	-1
158	16	87	-18	2
157	16	69	19	-2
157	-5	30	-28	2
158	-3	19	-26	4
157	-67	31	0	0
157	-110	11	1	1
158	-63	12	19	4
158	-48	16	12	6
158	3	0	24	10
157	52	3	22	4
157	48	-9	25	-1
158	38	-12	35	-11
157	19	-3	19	-10
157	61	4	3	-1
157	107	6	-2	-4
158	14	13	5	-1
157	-61	25	-2	-1
157	-60	67	1	-1
157	-103	79	-2	1
157	-27	6	-1	6
158	34	-1	0	6
158	-84	13	8	4
158	-104	-1	14	2
157	-48	9	13	4
158	0	7	16	6
157	71	7	14	4
157	58	3	15	1
157	75	9	14	4
157	107	20	8	5
158	87	23	8	-3
158	39	20	17	-13
157	36	17	21	-9
158	75	19	15	7
159	70	11	29	8
158	46	-3	56	2
157	68	-18	71	3
157	57	-19	21	3
158	-53	-13	-90	-3
157	-52	-14	-89	6
158	-119	-26	0	6
158	-214	-11	0	-1
158	-125	69	30	-5
158	-73	146	71	-8
158	-44	83	26	1
157	1	-1	-71	8
157	37	13	-98	3
158	66	33	-17	-7
157	96	52	-17	-3
157	117	46	-5	-2
157	83	39	21	2
157	65	38	7	7
157	46	28	38	0
158	11	26	57	3
157	45	42	45	15
158	27	45	12	18
158	-97	31	22	-10
158	-145	24	-3	-7
157	-57	18	-26	13
157	-35	8	29	6
158	-8	-9	18	9
157	25	-12	-5	10
157	20	-18	-14	-2
157	64	-6	9	-12
157	52	-8	23	-8
157	29	-10	14	-6
157	-71	-10	30	-8
157	-59	-10	1	-11
158	-5	19	-2	0
158	-4	58	16	2
158	45	46	7	4
158	52	-7	11	8
157	96	16	9	2
157	118	30	6	7
157	151	37	12	0
158	81	30	21	0
158	-9	14	10	4
158	-2	18	-9	8
158	-115	5	-4	13
158	-233	15	1	15
158	-114	13	4	15
157	92	22	1	13
157	42	22	6	5
158	-29	22	22	-9
157	-46	30	19	-10
158	-45	26	-5	-10
158	14	24	-2	-8
157	-14	23	20	-11
157	-1	24	21	-4
158	-7	14	38	7
157	5	9	62	2
158	31	-9	23	2
158	15	-13	-26	8
158	-17	-2	-3	7
157	-75	4	47	3
158	-42	14	27	10
158	10	18	-57	7
157	26	6	-104	11
157	79	9	-49	5
157	157	22	-5	-4
157	199	16	-7	-7
158	148	8	57	-2
157	74	-2	62	0
158	-1	23	-35	-3
157	-72	31	-86	5
157	-88	2	23	-1
158	-57	-17	56	1
158	-65	8	35	-3
157	-74	113	37	0
157	0	165	-26	2
158	30	77	-4	2
157	25	41	5	1
158	7	51	34	0
158	-15	19	63	8
157	-45	6	49	-1
158	-62	12	-18	0
157	-22	11	-58	4
158	-20	-4	6	-2
157	5	-2	1	0
158	17	-13	18	3
158	19	-23	26	2
158	28	-14	20	6
157	-8	39	31	7
157	10	72	10	2
158	83	30	14	-3
158	192	9	5	-7
158	244	-11	8	-7
158	159	-11	4	-1
157	-21	5	10	7
157	-158	-3	19	5
157	-200	3	17	3
157	-213	13	-6	4
157	-125	10	-19	10
158	-20	-8	9	8
158	0	-15	3	8
158	48	-6	11	-4
158	68	10	9	-9
157	125	28	-4	-12
158	71	35	10	-8
157	-69	94	19	0
158	-144	133	30	0
157	-187	43	36	10
157	-131	-14	51	11
157	18	7	15	8
157	159	19	-50	3
158	151	15	-62	1
158	169	2	-5	4
158	183	16	10	4
157	140	11	-6	9
158	30	11	-1	5
157	-3	16	4	7
157	24	5	19	8
157	-47	-10	8	-2
158	-70	-11	-1	-4
158	-104	0	3	6
157	-125	4	21	0
158	-102	12	39	-6
157	-56	19	7	-1
157	-15	31	-74	7
158	19	47	-63	-5
158	82	54	19	-14
157	192	94	24	-2
157	211	107	81	-1
157	117	52	84	4
158	51	28	-31	13
158	-83	12	-66	2
157	-184	-56	6	-15
157	-188	-87	41	-11
157	-103	-34	37	-7
158	-11	-6	34	-6
158	32	7	-15	9
157	79	11	-6	3
158	37	-2	-13	2
157	17	12	-6	-5
158	-4	31	25	-8
158	17	51	16	10
158	24	26	44	7
157	4	31	69	12
157	1	42	74	12
157	-24	27	5	2
157	6	15	-78	12
158	11	-2	-38	10
158	35	-1	12	0
157	83	0	-5	-1
158	71	35	-5	-9
157	13	37	-10	-11
158	-27	17	-8	-8
157	-88	14	1	2
158	-169	25	0	-4
158	-160	31	-3	-7
157	-73	25	-4	2
157	-12	27	15	1
157	22	24	14	2
158	100	31	18	2
158	161	26	18	7
158	154	26	24	4
158	97	26	28	-6
157	48	21	12	-6
158	2	10	1	7
158	-8	0	9	8
158	22	9	24	13
157	7	9	8	22
157	12	-2	-24	11
158	21	-6	-35	2
157	30	0	1	7
158	5	6	6	10
158	-28	21	6	3
157	-31	26	26	1
157	-58	60	37	5
158	-45	86	41	7
157	-18	22	24	1
158	-21	0	33	-8
159	-26	13	54	-10
157	-53	3	32	-9
157	-130	14	-48	-1
158	-111	16	-17	0
159	-10	27	35	2
158	72	44	-49	8
157	182	49	-22	10
158	222	34	18	10
158	199	22	4	7
157	47	12	19	-4
158	-79	6	3	-7
157	0	19	-18	-17
158	88	16	-24	-10
157	105	-1	-2	-7
157	57	-3	-1	-10
157	-18	-13	2	3
157	-82	0	10	4
158	-188	35	3	12
158	-249	38	13	3
157	-125	17	12	4
158	-33	14	7	16
158	-25	24	-7	10
158	8	11	-15	-3
157	19	5	-13	-5
158	17	6	-7	-12
158	43	15	5	-18
158	65	17	19	0
157	65	10	41	2
157	37	14	60	-2
157	14	19	52	-3
157	-16	25	39	-2
157	-89	20	41	-3
157	-50	24	41	-5
158	-1	10	25	8
157	21	-6	-16	15
158	81	0	-10	11
158	115	10	18	7
158	132	21	4	3
158	88	28	18	0
158	40	33	8	-2
158	-59	39	-3	-1
157	-113	54	-4	2
158	-29	42	-3	4
158	16	17	8	8
157	15	15	-22	7
158	58	-3	-31	16
158	113	-13	2	15
157	90	0	8	6
158	88	10	-31	2
158	53	30	-50	-3
158	-23	36	-21	-10
158	27	35	10	-3
157	42	45	10	3
157	14	41	26	2
158	8	44	23	13
158	-112	42	23	16
158	-219	0	33	15
158	-169	-13	23	-4
159	-31	-19	10	-7
158	5	-3	-6	-5
158	19	36	-15	-9
158	36	21	-13	1
157	22	-2	7	-2
158	-39	-22	8	0
158	-119	-19	17	-2
158	-86	9	15	-4
157	-81	21	10	-1
157	-94	8	8	2
158	-32	36	8	3
157	9	112	18	2
158	50	77	8	2
158	117	18	46	-6
158	158	44	75	-9
157	131	14	28	-4
158	32	46	-61	2
158	-58	82	-26	1
157	-12	25	44	-3
158	31	-9	1	4
158	36	-82	-14	4
158	97	-99	-66	10
158	114	-55	-41	9
157	136	-10	13	-3
158	97	79	-6	7
157	45	87	20	-7
158	37	23	2	-25
157	42	36	24	-15
157	34	37	49	-2
158	-5	17	43	1
157	-11	0	36	3
157	-44	-3	13	6
157	-78	8	8	7
157	-83	17	1	-7
158	-106	32	6	-9
157	-98	24	-1	2
159	-14	30	2	0
157	32	33	1	7
158	47	30	3	2
158	67	16	13	-6
157	12	2	5	-2
157	-17	8	15	4
158	-8	23	22	2
157	-42	30	36	0
157	-72	28	24	4
157	-26	31	-24	7
158	-25	33	-22	7
158	-5	24	38	0
157	23	18	52	0
158	26	12	10	-1
157	39	15	-25	12
158	47	43	-4	11
158	143	14	20	16
158	107	-31	-39	21
157	-17	3	-31	4
159	-24	13	22	8
157	-85	1	24	-3
158	-205	17	-5	4
158	-166	14	-32	4
157	60	21	-13	6
158	98	17	-7	7
157	52	20	1	-2
158	48	24	12	4
158	-8	18	11	2
157	3	13	28	4
158	-81	-5	36	-1
157	-222	-20	28	-4
157	-257	-14	-12	2
158	-121	9	-9	2
159	-20	12	40	0
158	87	19	28	3
158	206	43	64	2
158	213	70	89	-6
158	246	66	7	-4
157	161	36	-85	-2
157	117	33	-44	3
157	99	40	41	8
157	72	43	39	10
158	100	37	6	12
158	11	31	-55	7
158	-43	10	-6	-3
158	-96	-6	-16	-20
158	-84	9	-40	-15
158	-24	11	15	-4
158	22	14	-10	-15
158	41	13	9	-16
159	51	21	7	-11
157	51	24	8	-9
157	-6	1	20	2
157	56	-3	32	2
157	85	6	45	7
157	-1	5	33	15
158	-84	-6	21	17
158	-181	-15	-3	24
158	-289	-17	9	11
158	-275	41	-13	-12
157	-7	79	-16	-16
157	83	21	-1	-5
157	-33	41	-2	-4
157	9	72	2	0
158	81	52	3	9
158	112	71	20	11
158	48	46	21	7
158	29	16	15	8
157	-2	-23	23	7
158	-75	-94	37	-5
157	-93	-85	55	-6
157	-119	-33	54	-5
158	-64	11	2	-2
158	1	96	-57	6
157	82	62	-55	16
158	196	8	-14	9
157	264	57	15	7
158	231	50	32	14
158	140	16	23	6
158	54	0	-14	-2
158	-24	16	-25	0
158	-68	22	-1	-6
158	-49	15	1	-5
157	-43	23	-3	-2
157	-57	10	16	-9
158	-73	7	18	-5
157	-101	-12	21	-2
157	-58	-7	15	2
158	8	31	10	12
157	44	7	9	9
157	24	-6	9	2
157	53	34	18	8
158	108	57	35	13
158	43	60	85	11
157	-18	47	93	10
157	-30	34	-23	10
158	8	22	-124	3
158	54	4	-35	-20
158	61	18	4	-34
157	80	40	-23	-26
157	99	17	6	-9
157	10	1	-12	-3
158	-138	8	-11	2
158	-169	19	-19	2
157	-169	17	-1	-2
158	-221	5	40	1
158	-145	-7	53	-3
158	-7	3	12	3
157	-20	40	-36	9
158	48	47	25	1
158	95	31	44	4
159	71	23	35	13
158	52	-3	47	9
157	18	-2	23	9
158	52	17	19	20
158	24	9	9	19
157	21	16	-17	-4
158	43	9	-17	-5
157	53	2	2	5
157	57	12	4	-1
157	-50	22	-1	-2
157	-118	22	3	-10
157	-28	17	9	-6
157	33	21	6	-1
158	47	19	1	-4
157	107	19	6	0
157	144	21	14	2
158	175	24	35	0
157	89	67	20	-3
158	-9	68	-26	1
158	-29	5	-22	2
157	-28	14	22	1
157	-21	19	42	7
158	9	6	40	7
158	74	11	16	-1
158	117	4	-45	-5
157	90	4	-49	2
157	-34	-10	14	0
158	-53	-9	29	0
158	-78	-5	5	5
157	-122	-2	15	9
158	-132	2	-3	11
157	-81	16	-19	2
158	-25	32	1	-5
157	-39	37	-9	-3
157	-5	42	-9	4
158	-22	22	21	-3
158	14	17	11	-3
158	17	22	25	0
159	-18	13	74	-7
158	-45	26	51	2
157	-63	67	-52	7
158	-20	51	-78	12
157	-19	24	8	11
158	-24	26	0	16
157	-62	1	-1	14
158	-69	-2	14	9
158	20	30	0	4
158	78	38	25	-10
157	98	8	21	-2
157	199	8	31	-5
157	246	17	23	-13
158	191	10	17	1
158	80	9	37	4
158	-25	22	60	1
158	-68	45	81	0
158	-78	40	2	2
158	-44	24	-77	8
157	-23	22	-18	-6
159	28	41	0	1
158	55	22	-44	7
158	27	-53	-20	-3
158	-48	-82	-19	0
157	-33	-12	-9	-1
158	62	15	4	5
157	106	1	4	-4
158	178	18	19	-5
158	82	21	17	-2
158	-95	12	38	2
157	-123	-8	36	9
157	-78	26	16	6
157	-186	59	30	-3
158	-214	57	56	-4
158	-58	34	30	5
157	-72	14	3	13
157	16	18	-6	13
158	0	7	0	-6
157	-11	7	-2	2
158	16	-12	-28	4
157	-26	-40	-5	-6
158	65	-28	-21	-4
157	63	2	-26	-7
158	74	49	-17	-1
158	66	54	0	-1
157	43	-1	25	0
157	29	87	22	-5
158	-1	139	11	-4
158	-17	68	16	7
158	-61	67	54	9
157	-96	51	86	5
157	-133	34	91	0
157	-45	19	-32	16
158	64	19	-161	19
158	99	13	-74	-3
158	149	0	15	-16
158	178	14	-4	-10
157	160	-2	15	-4
157	111	-10	15	-2
157	66	-8	16	-1
157	-18	-6	9	-4
158	-30	0	-5	-1
157	27	8	14	4
158	-51	15	8	10
158	-75	26	22	11
157	-28	37	24	8
157	14	22	19	2
158	47	2	13	-5
157	56	-6	17	-4
158	141	-11	24	2
158	131	30	9	2
157	20	60	21	-2
158	-88	15	28	2
157	-87	-3	53	4
158	-84	-6	70	4
158	-199	-27	13	7
158	-175	7	-62	2
157	-80	19	-32	-4
158	-81	6	-3	4
158	-52	22	-12	4
157	27	33	46	-8
157	58	32	21	-5
158	96	27	-32	3
158	82	24	-48	5
159	73	26	-36	3
158	58	21	-4	4
157	7	21	-11	-1
158	-46	37	10	-1
157	-49	32	27	2
157	-39	9	39	6
158	-133	0	41	12
157	-188	15	32	12
158	-109	23	12	8
157	-28	7	3	7
158	41	-13	8	-2
157	151	-13	-7	-16
157	228	22	1	-18
158	277	54	3	-5
158	187	41	13	-3
157	112	3	20	9
158	82	-2	-3	-2
158	-16	-1	-8	-11
158	-46	-6	9	-1
158	-55	2	22	-1
158	-33	29	28	-1
157	-5	76	22	-8
158	7	79	0	-5
158	32	19	18	-4
158	44	34	59	-1
159	41	50	56	6
157	1	59	-26	5
158	-61	70	-101	12
158	-74	46	-31	9
157	-55	49	3	11
158	-87	25	-8	9
158	-95	-14	27	4
157	-10	-32	11	3
157	-28	-92	16	7
158	-71	-112	38	7
157	-49	-75	49	-8
158	60	-89	-2	-13
158	164	35	-25	-13
157	40	161	23	-2
158	-41	77	13	7
158	-68	20	5	14
158	-57	66	-1	18
158	11	108	7	11
157	3	52	14	10
157	-7	14	17	2
157	-17	2	46	-3
158	-5	-6	46	-4
157	18	18	-31	-2
158	20	20	-105	7
157	-25	28	-16	2
158	-83	19	49	4
158	-36	17	0	9
157	18	14	-18	4
157	22	15	-6	-6
157	48	15	35	-20
157	106	2	33	-10
157	150	-3	13	2
158	138	11	0	4
158	117	19	-3	10
158	50	18	17	12
157	1	21	6	9
158	12	17	-1	-1
157	-39	17	-16	-2
158	-87	9	0	-4
158	-102	4	28	-4
158	-93	5	22	2
158	-37	12	21	6
158	27	17	35	9
157	102	14	24	8
158	104	14	28	16
157	99	22	45	7
157	118	35	-4	-14
157	-14	19	-45	-9
157	-154	-3	-36	-1
157	-64	-10	-16	7
158	11	25	0	5
157	-80	65	27	-4
158	-5	52	15	-2
157	53	23	-8	1
158	0	25	7	2
157	71	31	-6	-4
158	35	15	1	-18
158	24	-3	35	-12
158	-21	-22	65	-4
157	-88	-19	30	-2
157	-78	5	-66	13
158	-121	68	-32	9
157	-87	55	41	7
158	4	-1	6	6
157	45	11	19	-1
158	40	-6	20	0
158	108	-5	18	-1
158	160	49	28	1
158	98	52	18	2
158	25	4	16	7
157	-59	24	-6	16
157	-120	83	14	7
157	-61	70	23	1
157	-16	49	14	2
157	-12	45	-22	11
157	20	51	-41	15
157	55	35	34	10
158	67	-33	46	8
158	25	-87	1	10
157	68	-42	-49	6
158	115	2	-33	-9
158	44	-18	4	-4
158	-66	-36	0	-4
157	-107	-43	50	-7
157	-141	4	38	6
158	-124	-10	-41	4
157	-49	-31	-56	-10
157	12	-4	6	-18
157	127	41	21	-2
158	87	137	8	-1
158	55	111	-3	3
158	61	24	-16	4
157	40	23	19	4
157	53	42	30	4
158	3	38	39	0
158	0	34	28	0
157	7	30	21	-10
158	8	23	33	-9
157	-10	28	23	-4
158	-34	41	20	-2
157	-29	38	2	4
158	-3	29	-1	8
157	-7	29	13	5
159	-6	24	12	13
158	7	20	3	13
157	-7	16	5	8
158	3	16	3	9
157	-18	4	13	15
158	-62	2	14	8
158	-95	12	0	-10
157	-25	-10	-15	-13
157	55	-42	-15	-4
157	46	-46	2	-1
157	38	-20	-2	-3
157	113	14	17	-2
158	162	3	37	-6
157	95	-16	63	-1
158	16	20	32	1
157	-78	59	-86	3
158	-88	49	-62	4
157	-115	40	27	-3
158	-71	57	-8	9
157	13	68	-15	6
158	-42	99	-4	4
158	41	72	-6	0
157	104	15	5	-10
158	48	29	12	-4
157	13	15	40	7
158	-23	6	32	11
158	-39	-6	29	8
157	-67	-17	29	10
157	-78	3	40	8
158	-65	2	25	0
158	-25	-21	-62	0
158	26	-17	-41	2
158	175	3	19	-6
157	228	7	6	-11
158	121	29	36	-17
157	69	27	79	-14
158	-7	23	30	-5
157	-20	24	-81	6
158	-46	27	-49	6
158	-52	25	5	-1
158	-17	19	-40	3
158	-10	7	-1	0
157	27	-2	6	1
158	12	7	12	2
157	-10	22	14	4
158	-15	66	20	3
157	-12	72	36	12
158	-4	55	26	22
158	-16	49	40	7
157	-70	29	20	-4
157	-122	-8	31	4
157	-92	-76	29	0
158	1	-94	7	2
157	48	-13	-24	15
158	94	21	-36	7
158	138	15	-1	2
158	103	28	17	-11
157	82	33	36	-13
158	34	42	12	0
157	-17	12	6	2
157	-56	-11	51	7
157	-84	1	36	2
157	-78	22	8	1
157	-53	9	5	4
157	-20	-30	3	5
158	43	-13	-4	1
157	104	46	-9	10
158	25	41	1	9
157	-87	-22	43	-10
157	-92	-33	47	-16
157	-53	52	-26	-5
157	-133	151	-47	1
159	-137	109	36	-7
157	57	71	14	-2
158	181	94	-30	1
158	135	67	-7	11
158	79	45	-15	14
157	8	33	-2	10
158	-15	26	2	7
158	17	-5	15	1
157	9	-20	13	-3
158	53	3	2	-7
158	78	2	11	-3
157	98	-6	38	0
158	89	5	56	5
157	57	-10	7	4
158	42	-18	-36	6
157	10	-16	-19	7
158	-23	13	1	-4
158	-67	70	8	-2
157	-102	25	8	2
158	-112	-21	9	-5
158	-112	7	18	-14
158	-118	22	-22	-19
158	-28	39	-32	-13
157	45	10	-4	2
157	67	2	-8	4
157	140	8	1	8
157	181	2	29	14
158	200	17	56	11
157	146	17	77	9
158	58	32	47	8
157	-58	38	-26	14
158	-150	34	-38	22
157	-156	13	-35	15
158	-81	8	-20	-6
158	28	5	5	-5
157	37	3	-15	0
158	-37	-7	-17	-6
158	-96	-9	-7	2
157	-38	-3	10	-2
157	-40	0	12	1
157	-127	21	19	3
157	-75	31	22	-2
157	41	42	14	-2
157	2	33	19	5
158	-68	19	7	-1
157	-55	20	20	-10
158	10	27	21	-6
157	55	29	34	1
158	60	19	46	5
158	92	22	38	6
157	71	30	35	-1
158	41	27	53	-5
157	48	44	54	7
157	32	84	-18	-15
158	11	94	-97	-13
157	52	74	-29	-1
158	71	52	33	2
158	82	17	8	12
158	71	-47	4	10
158	24	-97	-11	6
158	-6	-51	33	-10
157	-54	6	36	-2
159	-72	-19	-27	2
157	-68	-14	-45	0
157	-70	21	-12	-10
158	-100	13	7	-1
157	-54	28	3	8
158	27	21	19	9
158	109	2	8	10
158	213	0	13	7
158	185	-5	0	8
157	140	-2	-10	-3
158	35	-13	4	-7
157	-92	6	14	-5
158	-90	99	12	4
158	19	116	9	4
157	60	58	19	4
158	-17	66	2	3
157	-40	36	-16	0
157	-129	-2	0	-2
158	-134	-3	28	-3
157	19	12	22	3
158	106	23	15	10
158	41	43	22	18
157	0	62	31	12
157	-46	23	54	-2
158	-158	-26	56	-7
157	-233	-16	-24	4
158	-89	2	-32	9
158	38	-20	26	2
158	-14	1	-1	-5
158	24	28	-23	-5
158	22	36	-26	0
157	64	42	0	-1
157	85	42	3	0
157	63	42	-9	-5
158	27	38	-3	-10
158	-16	25	-1	6
158	18	7	-9	3
158	-14	-7	-20	-15
158	3	-13	7	-4
157	24	12	32	3
158	3	13	34	1
157	9	17	-13	11
157	49	30	-17	16
158	78	22	30	8
157	62	14	13	-1
158	9	2	12	-9
158	-82	0	28	2
157	-26	6	34	11
157	84	19	34	4
157	131	22	10	12
158	163	47	23	8
158	175	62	49	8
157	137	37	100	8
158	-18	59	63	0
