File Name: not saved
Channel 3: 'EKG', 21870 values, raw ADC, no filters.
Channel 4: 'FCR_EMG', 21870 values, raw ADC, no filters.
Channel 5: 'FCU_EMG', 21870 values, raw ADC, no filters.
Channel 7: 'ECU_EMG', 21870 values, raw ADC, no filters.
Channel 8: 'ECR_EMG', 21870 values, raw ADC, no filters.

157	-86	11	53	1
158	-52	6	100	11
158	-33	0	87	8
158	-8	4	-87	17
157	1	-3	-120	16
158	45	-16	6	-6
157	73	-5	-3	-3
158	87	14	13	-9
157	112	40	29	-9
157	108	56	9	-3
158	130	45	27	2
157	119	42	26	11
158	64	44	30	15
157	23	35	8	18
157	-37	26	0	-18
158	-93	24	7	-12
157	-119	19	24	4
157	-78	30	25	-18
157	-32	31	-1	-14
158	-37	20	-12	-1
157	-33	25	4	13
157	-28	15	6	7
158	-11	14	-6	10
158	3	9	3	4
157	4	10	-3	1
157	-5	8	0	4
157	-14	-4	-2	4
157	5	-1	4	9
158	5	1	30	0
157	-55	2	56	0
157	-105	3	54	0
157	-58	12	5	2
157	-16	15	-13	0
158	27	21	12	-5
158	78	28	37	-1
157	86	26	65	5
158	100	24	102	4
158	71	25	50	6
158	38	25	-61	10
157	3	26	-113	7
157	-20	21	-37	0
158	-9	15	-27	3
158	-6	18	-42	-2
158	13	16	27	-6
158	47	23	-28	-1
157	48	17	-12	-3
158	3	11	34	10
158	-19	14	62	10
157	-35	10	28	2
157	-71	21	-123	10
157	-92	19	-65	4
158	-38	12	33	1
157	-7	17	-10	5
158	-56	15	39	0
158	-32	10	66	4
158	5	6	31	-3
158	33	-1	12	-9
158	59	-7	-12	-8
158	87	3	19	-7
157	106	37	41	-1
157	97	63	48	2
158	85	43	53	9
158	42	18	85	6
157	24	21	15	-1
157	20	30	-113	-2
157	31	28	-36	-4
157	24	23	28	4
158	0	26	4	10
157	-10	21	30	2
158	-29	21	32	9
157	-35	17	46	7
157	-47	18	26	-10
157	-38	21	-9	-15
158	-30	15	5	-1
158	-20	17	1	-1
157	-5	17	-20	0
157	7	18	-32	6
158	27	17	-8	3
157	12	13	0	-4
157	-39	14	-16	-14
158	-50	17	-5	2
159	4	12	-2	4
157	69	13	7	5
157	128	10	31	29
157	92	3	35	22
158	86	6	1	-7
158	80	6	-18	-9
158	-12	6	7	-10
158	-84	15	11	-15
158	-112	21	16	2
158	-106	27	41	4
158	-99	34	42	16
157	-32	32	5	15
157	-23	38	-28	-5
158	-49	41	-4	-10
158	-15	31	27	-5
158	-16	16	80	-1
158	3	2	137	-9
157	19	3	-3	-1
157	38	11	-209	6
158	26	13	-102	-1
158	-13	1	61	5
157	-9	7	-5	11
158	-9	16	-39	11
157	-32	38	-39	7
157	-42	51	8	-6
157	-20	38	16	0
158	5	28	4	-8
157	35	21	33	-7
157	79	22	14	0
157	102	18	35	-2
157	115	19	20	2
158	120	19	32	9
158	101	11	43	10
157	92	7	42	7
158	59	6	13	9
159	33	3	-9	-2
157	31	5	19	-10
157	5	18	0	-13
157	-16	19	-14	0
157	-25	13	-16	8
158	-20	0	0	3
157	-22	-13	-25	6
158	-29	-21	-37	0
158	-28	11	-13	7
157	-38	49	12	13
158	-49	47	96	8
157	-41	32	150	2
158	-30	21	122	6
158	-29	24	6	2
158	-21	24	-91	-6
158	-22	23	-81	2
158	-49	23	29	2
157	-47	22	42	6
158	-2	29	2	9
157	33	25	32	4
157	102	19	-4	1
158	92	22	6	-1
158	55	30	-13	-22
158	85	33	-4	-24
157	78	27	6	-5
158	10	21	-29	0
157	-59	15	-5	9
158	-11	9	4	3
157	-24	2	9	3
157	-92	7	16	-2
157	-83	7	-1	-1
157	-36	14	-33	4
158	-3	18	-10	-5
158	-38	17	9	4
158	-36	22	-2	2
158	-41	18	-2	4
157	-31	15	0	8
158	-12	6	24	10
157	10	-2	24	13
158	22	-8	45	14
157	-10	0	42	1
157	-44	15	-5	-3
157	-71	19	-9	4
158	-34	15	54	0
158	33	13	96	-6
157	80	13	30	-18
157	113	45	-91	-6
157	147	95	-132	-1
158	161	74	22	4
158	140	29	71	10
157	114	25	-13	3
158	56	18	-72	10
157	-8	21	-59	2
158	-24	11	30	4
157	-21	11	2	11
157	-37	14	13	7
157	-57	4	4	7
157	-44	13	10	-2
158	-17	10	40	0
157	4	9	24	11
158	13	6	34	11
157	5	11	-1	8
157	-8	13	22	4
157	-7	11	32	0
157	-2	16	10	-8
158	-2	21	-24	-5
157	-6	20	-22	-10
157	-8	15	33	-16
157	-7	17	42	-7
159	-6	16	58	-1
158	-30	17	69	0
158	-78	19	71	0
158	-62	16	-5	0
157	-17	22	-115	3
157	7	21	34	-1
158	73	3	102	2
157	116	-7	-80	11
158	107	-10	-64	6
158	86	-23	3	0
158	45	-10	1	8
158	-8	40	0	7
158	-81	63	0	7
157	-63	54	14	6
158	-2	40	16	9
158	14	35	34	15
157	49	38	43	9
158	6	30	35	4
157	-43	23	10	0
157	-47	20	17	-2
157	-72	14	14	-11
158	-93	14	-84	-24
157	-101	15	-78	-18
158	-1	15	5	-12
158	40	19	-12	-3
157	37	16	-3	-2
157	67	19	1	1
158	35	19	5	2
157	28	15	28	9
158	7	17	34	14
158	-47	16	46	13
158	-98	13	25	3
158	-67	14	12	-9
158	-1	21	25	-5
157	37	19	55	-1
157	90	16	16	10
158	114	19	-15	7
157	114	17	50	15
157	84	14	118	14
157	49	17	54	-2
157	49	26	-84	4
157	15	19	-75	10
157	-2	9	-40	-2
158	6	14	-11	-12
158	5	18	40	-6
159	20	19	13	6
158	23	19	-17	13
158	16	18	-45	6
157	5	14	-9	4
157	-8	9	5	2
157	-10	13	-2	-1
158	-11	11	24	3
157	-12	18	23	1
157	-17	22	37	-5
158	-13	22	14	-9
158	-16	28	4	-13
157	-41	25	0	-9
158	-64	18	13	0
157	-57	10	7	-2
158	-96	10	0	6
157	-117	8	14	9
157	-7	8	3	4
157	70	17	17	-1
157	103	23	6	0
157	117	23	1	3
158	106	27	2	-1
158	70	35	13	4
158	4	43	18	7
157	2	39	5	7
157	13	24	19	1
158	-18	17	58	-1
157	-18	6	94	-6
157	-25	2	2	-3
158	-33	8	-68	12
158	-14	9	21	3
158	-4	14	18	2
158	16	26	-33	-2
157	50	29	13	-9
157	67	31	33	-7
158	22	30	41	-4
157	-2	32	-111	9
157	-18	34	-158	10
157	-52	14	15	0
157	-59	10	6	2
158	-47	13	19	-3
157	7	14	25	6
157	26	10	23	2
157	-6	-6	95	-5
158	-70	-15	55	-2
158	-95	-28	42	-2
157	-54	-10	10	6
158	-38	32	-20	2
157	-6	48	-17	6
157	33	21	12	-1
158	55	-25	25	-1
158	85	-45	3	-3
157	95	-35	-19	-1
158	104	-45	-19	4
157	78	-42	34	7
158	34	-34	32	11
158	34	-31	2	-4
157	30	-7	-78	1
158	17	6	-43	7
158	1	15	65	2
157	-7	26	108	1
157	1	34	118	-1
158	5	41	-66	15
158	1	38	-130	25
158	-1	32	1	11
157	2	38	5	-2
158	24	48	-12	-18
157	35	38	-1	-20
158	-37	38	-10	-13
157	-107	41	30	2
158	-71	41	33	14
158	-41	43	28	9
157	-20	45	24	8
157	51	47	14	0
158	77	47	19	-3
157	67	48	7	-1
158	88	55	8	4
158	48	56	11	3
158	-29	45	19	5
157	-73	45	10	6
158	-55	47	2	-1
157	-21	30	-4	-4
157	-11	14	-24	-4
158	-1	14	10	3
158	3	14	38	2
157	14	12	74	-2
158	8	16	62	4
158	13	28	-73	10
158	11	39	-78	0
158	-8	38	6	-6
158	-7	54	-3	-8
159	3	77	12	-3
157	50	92	38	7
158	47	52	48	5
158	9	22	70	-1
158	5	32	81	-16
158	-27	6	33	-7
158	-73	13	-119	13
158	-113	15	-94	-2
157	-55	5	35	-18
157	15	10	2	-6
158	14	3	13	-6
158	37	6	-18	-8
158	57	5	-46	-6
158	64	0	17	-5
157	60	-1	36	2
157	61	6	30	10
157	67	10	-16	14
158	34	12	-18	15
158	18	15	18	18
158	16	20	39	8
157	3	23	81	9
157	-6	12	111	18
158	-9	3	-19	2
158	-13	7	-171	-12
157	-9	13	-74	-5
158	-8	7	5	-6
157	-6	9	-26	-4
157	-5	9	16	2
158	-20	11	-3	9
158	-34	14	-18	15
157	-37	12	-1	7
158	-22	10	12	2
157	-3	5	65	-3
158	34	12	89	4
157	77	14	49	-1
157	46	13	1	0
158	-40	0	48	2
157	-72	-13	36	8
158	-49	-8	24	6
157	-55	26	29	-1
158	-17	56	-8	3
157	68	40	25	6
158	94	17	4	-1
158	97	13	5	-12
157	52	24	13	-2
158	32	15	8	9
157	42	9	26	6
158	1	8	9	6
158	-32	9	-10	2
158	-68	23	-38	-3
158	-5	23	-25	-10
157	61	23	-8	3
157	23	23	11	9
158	27	25	45	4
158	21	24	74	0
158	2	17	10	-5
157	-27	19	-107	14
158	-38	23	-35	10
158	-4	26	52	-7
158	-39	19	54	-7
158	-54	7	83	-15
158	-42	10	6	-9
157	-36	24	-104	-6
157	3	41	-68	-8
158	22	44	10	-6
157	40	27	-36	4
158	47	14	10	4
158	49	14	41	10
158	49	16	6	10
158	32	12	20	8
158	11	10	-5	12
158	-7	4	29	-3
158	-2	7	-8	-7
157	-6	8	-5	-2
157	-5	8	24	0
157	11	10	9	4
157	16	12	10	8
157	8	17	8	6
158	-3	15	22	-1
157	-18	9	13	-2
158	-39	2	20	-1
157	-49	5	6	-4
157	-18	7	8	-3
158	7	13	20	0
157	15	18	34	2
158	30	22	30	7
158	22	29	-11	10
158	47	34	-13	1
158	63	40	13	-1
157	32	35	31	-5
158	3	29	-4	1
157	-30	24	-7	8
158	-27	22	55	1
157	-12	20	107	4
157	0	15	25	5
157	18	10	-125	12
158	19	10	-44	6
158	10	3	34	6
157	-14	0	-13	-1
158	-28	13	-5	-15
157	-32	15	2	-14
158	-29	16	56	-20
157	-22	17	-4	-4
158	11	21	-87	2
158	45	25	-24	0
158	67	21	13	12
158	67	21	8	20
157	44	23	10	4
158	41	25	5	-17
158	19	27	6	-2
157	-11	22	15	2
158	6	25	14	0
157	-2	24	21	4
158	-6	11	8	3
157	-7	-2	17	9
157	-23	-7	40	7
157	-31	4	41	8
158	-45	36	23	7
157	-84	44	15	10
158	-126	23	28	0
158	-95	11	68	-6
157	-31	13	10	-3
158	28	18	-102	-4
158	107	11	-27	2
158	149	7	60	2
157	163	5	22	4
157	145	10	-8	2
158	99	21	-31	-9
158	80	19	-2	-1
158	78	28	2	5
158	49	30	2	3
157	30	26	17	3
158	35	32	43	-1
158	-18	32	107	-5
157	-92	27	25	0
158	-160	28	-105	9
158	-208	24	-13	-4
158	-183	13	81	-1
157	-106	22	-10	5
158	-15	27	-15	-4
158	10	30	-8	-3
157	52	15	3	13
157	100	-8	15	14
158	104	-2	5	8
158	81	1	19	4
158	29	7	-21	8
158	1	10	-7	9
157	-2	6	-13	-1
158	-5	15	-3	0
158	-20	22	7	-1
158	-18	36	-2	4
157	-19	45	29	3
158	-16	40	86	-5
157	-25	31	85	-4
158	-33	29	-73	2
158	-4	30	-92	3
158	15	9	37	-5
158	22	6	4	-3
157	18	7	-9	4
157	5	4	10	9
157	26	14	3	1
157	48	28	39	-6
157	56	71	12	-1
158	37	64	19	3
158	0	6	-11	4
158	-10	8	-60	6
158	-15	15	-15	-5
158	-25	11	-10	3
158	-24	16	1	4
157	-3	0	13	-7
158	23	-1	-8	-4
157	30	-9	24	-6
158	45	-1	31	-5
158	37	10	36	-1
157	30	15	43	2
157	24	16	25	-3
157	14	12	14	-13
158	11	20	4	-9
158	10	20	9	-2
158	20	22	15	2
157	13	17	16	4
157	-2	17	9	4
157	-6	16	1	11
157	-17	15	-10	10
158	-32	16	-9	7
158	-40	15	3	1
157	-22	17	-1	0
158	0	17	9	0
158	-2	22	33	-7
157	10	17	52	1
157	7	15	58	7
157	-8	17	80	-1
157	-40	14	43	-5
157	-84	24	-83	5
157	-79	28	-65	8
157	-70	17	11	-1
158	-61	12	-18	-4
157	51	9	1	-5
158	143	12	8	4
157	212	17	16	5
158	236	10	36	11
157	126	6	19	13
157	64	-2	29	15
158	-29	-7	58	15
157	-78	15	48	-6
158	-106	62	-95	-7
158	-97	69	-55	-1
157	-1	39	36	-4
158	-27	33	-74	-5
158	-10	37	-28	-3
158	-12	25	16	-6
158	-17	18	-13	-3
157	-1	20	-5	8
158	-6	17	-29	9
157	10	11	4	9
157	-1	15	-5	2
158	-5	18	2	-1
157	-23	17	7	2
158	-13	17	1	2
157	-1	14	29	2
158	-1	14	46	2
158	3	15	108	5
158	0	12	159	9
159	10	14	78	4
157	17	21	-70	5
157	32	15	-55	12
157	25	11	-9	3
158	23	13	2	0
157	26	15	14	3
158	15	19	-30	-9
157	-4	17	-6	-17
158	-17	18	-5	-15
158	-14	14	-7	-6
158	-17	14	-5	-5
157	-23	15	-18	-3
158	-18	12	6	4
157	10	14	9	4
158	37	14	14	3
158	55	14	27	0
157	55	16	45	6
157	23	17	49	4
157	12	17	-8	8
158	24	22	-57	11
158	28	19	10	3
157	15	18	29	-7
158	-4	24	15	-7
158	-17	28	37	1
157	-51	22	53	-1
158	-97	9	60	2
157	-57	14	-101	6
157	15	23	-129	10
157	74	18	8	5
157	90	21	-7	9
158	79	22	10	8
157	101	19	34	0
157	51	14	39	-3
158	-50	11	53	-12
157	-116	19	7	-7
158	-88	16	-3	-1
157	-62	17	14	8
158	-38	15	0	-7
157	24	15	-10	-14
158	55	19	8	-1
158	89	24	31	0
157	74	22	33	-1
157	59	22	-15	0
158	47	29	-12	-4
157	-1	35	41	-8
157	-13	34	87	2
158	-8	18	83	7
157	-34	15	-52	16
159	-32	22	-136	27
158	-24	17	-17	2
158	-25	13	22	-8
157	0	16	-11	2
158	9	18	25	-4
157	17	22	-2	-1
157	8	20	9	-1
158	0	15	-5	-2
157	4	15	-7	2
158	1	14	16	4
158	2	15	-3	7
157	0	17	62	3
157	-2	17	120	4
157	-2	11	56	9
157	1	15	-78	18
157	3	22	-15	3
157	2	17	57	-7
158	3	13	-24	1
158	3	16	-12	-3
157	3	19	-15	1
159	1	14	-8	3
157	4	20	5	2
158	8	22	5	-2
157	8	18	28	-1
158	5	17	23	-7
158	2	14	26	-6
158	3	18	15	0
157	-1	17	10	-2
158	-15	14	5	8
158	-28	15	2	4
158	-33	17	16	7
157	-19	15	28	9
158	-3	11	29	2
157	12	11	-28	6
158	27	21	-59	11
157	40	24	17	9
157	45	15	19	5
158	34	21	-43	-10
157	22	34	-24	-26
158	15	30	-4	-9
158	18	21	4	2
157	31	24	10	-1
157	26	15	14	5
158	18	13	13	6
158	22	16	1	0
157	17	19	5	-5
158	12	20	35	-2
157	12	17	59	1
158	-4	20	35	1
157	-42	20	-11	-1
157	-111	17	-24	3
157	-106	18	8	-2
158	-22	21	8	3
158	-1	22	6	7
158	19	24	16	-1
158	60	23	13	3
158	95	19	16	4
158	99	17	8	8
158	66	17	13	-1
158	47	18	52	2
157	8	14	89	-1
158	-12	13	19	2
157	-6	19	-108	17
157	-11	23	-50	10
157	-10	19	51	1
158	-9	22	17	0
158	-10	13	-9	-2
157	-28	1	-46	-16
158	-72	-4	-28	-9
157	-87	-10	11	6
157	-52	11	-3	-2
158	-35	51	7	-6
158	-1	50	8	-3
158	37	18	22	3
157	60	8	32	6
157	77	12	61	4
158	86	19	101	8
157	94	24	14	10
158	61	34	-127	7
157	22	24	-58	8
159	9	15	72	0
157	0	18	89	-3
158	-11	16	55	-6
157	-8	22	-113	0
159	-11	23	-83	-4
158	-17	17	35	-6
157	-11	18	-19	4
158	-11	14	15	-1
158	-12	13	28	4
158	-16	17	35	0
158	-29	19	-3	0
158	-31	18	-16	4
157	-25	19	38	4
158	-13	23	17	7
158	-1	19	30	3
157	12	17	-2	6
158	23	15	-7	1
157	29	15	6	-7
158	34	15	14	4
157	25	17	28	17
157	13	15	6	11
157	6	16	4	5
157	2	21	-5	7
157	0	18	8	2
158	-1	19	8	-9
158	3	20	10	-10
158	2	19	18	2
158	3	19	23	4
157	3	18	22	7
157	1	13	10	6
158	1	11	25	2
157	4	8	38	-4
158	4	12	19	-14
157	4	18	-24	-4
158	9	21	-37	1
158	6	22	-27	4
158	4	17	5	6
158	2	19	-10	6
158	5	22	-22	7
158	6	19	45	0
158	5	20	53	9
158	5	17	6	11
158	4	15	-26	14
158	5	16	24	0
157	3	14	27	1
158	7	17	-3	0
158	9	19	21	-28
157	8	21	25	-17
158	7	17	19	-15
158	8	19	-90	-3
158	11	26	-57	2
157	7	18	71	-12
158	3	16	29	-6
157	6	17	40	-7
157	5	17	63	-5
158	4	20	19	2
158	4	23	-95	9
158	8	28	-73	6
158	7	18	71	1
157	4	20	45	7
158	5	23	41	19
157	2	16	10	17
158	2	19	-13	4
157	4	23	26	5
157	5	23	1	-3
157	4	19	-17	-1
157	8	20	-15	7
158	7	15	-8	-6
158	8	15	-20	-1
157	5	15	-12	6
158	4	17	-7	4
157	9	22	16	7
157	5	18	27	6
158	1	18	23	9
157	2	17	28	8
158	3	14	11	3
158	3	13	11	3
157	-9	13	10	5
158	-22	12	14	2
158	-11	14	32	1
158	1	15	72	0
157	5	13	29	0
157	12	27	-117	8
157	28	29	-61	4
157	42	23	40	-1
158	38	28	-5	3
158	23	18	54	3
157	14	15	59	-2
157	11	18	16	-9
158	5	17	-1	-8
158	0	17	23	-1
158	0	15	26	9
157	-2	14	-36	10
158	0	19	-27	-1
158	3	18	-16	1
157	2	18	-6	-4
158	0	19	-8	-2
157	-1	15	1	2
159	2	15	13	-4
158	3	13	10	1
158	3	10	20	2
158	0	11	15	1
157	-2	17	14	13
157	2	21	12	13
157	3	22	2	9
158	4	23	-8	10
158	5	21	-5	9
157	4	16	-13	9
157	4	13	-24	9
157	1	14	0	20
158	3	13	46	23
157	5	15	68	14
157	4	19	86	-3
158	6	20	57	-16
157	5	22	-32	-20
158	5	22	-6	-27
158	5	22	5	-29
157	7	19	5	-21
158	5	21	46	-25
157	5	21	30	-33
157	5	19	-14	-26
158	3	24	-41	-17
158	5	21	6	-14
157	3	15	4	-4
158	4	17	-27	-4
157	8	22	-12	-8
157	11	24	-4	-11
158	7	19	14	-15
157	5	17	22	-6
158	7	22	-5	-3
157	5	19	-26	-7
158	0	17	-38	-1
158	2	16	-36	11
158	1	16	-31	21
157	4	16	-40	23
157	1	16	6	20
157	4	18	77	20
157	7	17	89	24
158	3	15	54	22
158	4	19	22	18
158	4	19	16	12
157	4	17	34	15
158	9	18	35	25
157	7	21	38	29
157	5	15	44	27
158	3	13	27	16
157	0	14	22	-10
158	-2	14	8	-12
157	3	17	-13	1
158	4	18	29	-4
157	5	19	-16	3
158	17	31	-125	19
157	15	24	-20	19
157	5	18	4	0
158	4	23	-44	-4
158	1	15	12	-3
158	1	17	-10	-6
158	2	19	27	-10
158	1	14	96	-9
158	3	13	29	-2
157	5	20	-110	7
158	11	26	-44	9
157	11	23	48	7
157	9	18	-16	16
158	3	13	-5	9
158	1	18	-18	3
157	5	22	-9	4
157	5	15	6	6
158	8	17	19	3
157	6	15	37	-6
158	3	14	24	-14
158	6	17	19	-18
158	7	19	-3	-10
158	7	20	25	-5
157	7	17	29	-5
157	5	15	20	1
157	0	15	34	1
157	2	13	35	2
158	4	13	28	4
158	7	17	9	1
157	7	17	10	-13
157	6	23	32	-13
157	6	20	61	-5
157	3	15	48	0
158	5	17	-17	2
157	3	13	-54	-7
157	3	17	-38	-8
158	5	17	-11	0
158	-1	17	8	2
158	-14	21	15	-1
157	-22	19	18	-5
158	-11	18	10	-1
158	0	22	10	6
157	16	23	27	7
157	16	14	64	8
158	21	16	38	0
158	41	24	-45	13
158	39	25	-105	26
158	24	25	-16	0
157	15	18	70	-10
157	11	25	2	4
157	6	16	77	10
157	-3	2	68	-3
157	-5	15	-45	-24
158	-5	21	-87	-14
158	0	17	-133	-12
158	0	21	-66	-6
157	-1	19	57	-3
158	-1	16	58	0
157	-1	20	26	4
157	3	17	37	2
157	3	21	8	10
158	-1	19	35	2
158	0	19	21	3
158	3	17	8	7
158	1	17	13	3
157	2	17	14	1
158	-1	19	12	4
158	-1	17	-8	7
157	0	13	9	3
158	0	18	-8	5
157	4	19	6	4
157	4	19	13	6
157	5	23	8	11
158	6	20	20	12
157	4	21	7	2
157	5	17	2	-1
158	6	19	-4	-5
159	7	21	10	-5
158	4	14	23	2
158	7	17	23	1
157	3	15	17	7
157	5	15	10	6
157	4	19	11	2
158	4	18	6	3
157	7	17	14	-1
158	9	17	17	-4
157	5	15	14	-2
158	3	14	10	2
157	1	14	10	9
158	-1	16	15	6
158	1	17	37	4
157	10	19	54	-1
157	11	19	10	4
157	8	19	-33	2
158	10	20	-16	-4
158	10	17	0	2
158	14	23	-7	0
157	11	22	-19	-6
157	2	24	-47	-7
158	1	24	-43	1
158	3	19	15	2
157	3	17	89	-5
158	2	18	43	-4
157	8	24	-97	9
157	7	25	-47	8
158	4	14	70	0
157	3	16	24	-4
157	9	19	25	-7
157	7	12	3	4
157	8	13	-17	-7
157	5	15	10	-11
158	1	19	-29	-3
157	4	17	11	2
157	2	15	21	4
157	5	17	-6	-4
157	5	17	15	-6
157	5	18	23	-5
157	5	19	42	2
158	4	19	63	0
157	7	18	22	6
157	8	16	-32	22
158	5	13	-11	16
158	5	18	-5	-9
159	7	22	-2	-4
157	5	18	-3	-1
157	4	14	-33	-10
158	3	14	-1	-9
157	4	19	15	-12
158	5	18	4	3
157	7	22	28	13
158	5	20	117	9
158	3	12	163	0
158	3	14	-43	11
157	10	26	-195	26
158	9	21	-23	0
158	-3	9	60	3
157	-7	15	0	3
158	-9	14	37	2
157	-4	21	25	9
157	1	17	-13	6
158	5	10	-53	17
158	10	14	-17	12
158	16	18	22	6
157	27	22	6	-8
158	22	20	20	-20
158	12	20	9	-17
157	12	18	32	-2
156	7	16	43	4
157	3	17	23	7
157	3	24	5	18
158	1	19	22	7
158	1	19	18	-4
157	0	22	-6	-11
158	-1	18	-34	-8
157	-1	14	-36	0
158	-1	15	-3	8
158	1	19	-41	13
157	3	19	-3	12
157	0	16	39	14
157	7	15	21	4
157	13	21	23	2
157	10	22	9	-3
157	5	22	28	-5
157	5	22	12	-4
158	4	21	21	-5
157	2	21	41	4
157	3	24	38	4
158	4	23	18	7
158	4	16	4	10
158	3	10	48	8
158	2	11	63	-2
158	3	19	-15	-9
157	8	24	-137	0
158	9	23	-42	1
157	6	16	27	6
158	7	19	-27	7
158	7	17	24	8
157	5	15	17	13
158	-1	15	23	-5
157	-11	17	2	-8
158	-11	18	-11	-2
157	-2	11	27	-10
158	5	11	22	-11
157	6	13	30	-7
158	2	15	23	2
158	1	15	35	4
157	10	16	39	1
157	13	14	30	0
157	8	12	-42	0
158	17	23	-113	8
158	28	32	-39	12
157	28	25	11	19
158	21	24	-15	20
158	15	25	-21	9
157	10	20	-16	10
158	5	17	41	-2
157	-1	13	38	-9
158	-2	14	-6	-1
158	-1	18	4	-6
157	0	24	16	-11
157	-1	22	118	-4
158	-4	12	223	-3
158	-3	16	109	3
157	4	29	-87	19
157	5	27	-70	13
158	0	21	-11	0
158	2	20	-58	-11
158	5	16	-70	-34
158	4	17	-54	-46
158	5	19	-36	-50
157	1	17	-5	-51
157	4	17	53	-42
157	5	19	42	-20
158	3	19	3	-2
157	5	17	24	11
157	5	20	39	12
157	5	19	36	14
158	1	19	16	19
157	1	17	24	18
157	2	15	32	23
158	1	16	23	20
157	3	19	7	21
158	1	18	4	14
157	3	17	20	16
158	7	16	-16	24
158	7	12	-20	21
157	4	18	4	26
157	2	16	9	17
158	1	16	10	11
157	9	19	-25	15
158	12	18	-34	14
158	13	19	-1	8
158	8	23	-6	5
158	4	22	-8	2
159	3	19	8	3
158	5	14	8	10
157	10	13	17	8
158	5	15	13	6
158	4	15	12	7
157	7	18	10	9
158	9	19	5	9
158	5	15	3	9
157	1	14	-2	3
158	4	25	3	-7
158	3	24	-5	-8
157	11	22	-13	-9
158	16	19	-8	-8
157	8	15	38	-8
158	-4	13	118	-9
157	-8	7	97	-5
158	-1	15	-58	4
157	4	23	-80	2
158	7	13	24	-6
157	7	19	-8	4
157	17	22	5	4
158	18	13	10	2
158	11	24	-39	-26
158	6	22	13	-19
157	11	19	48	6
158	9	23	62	-5
157	0	23	42	1
157	-9	24	3	-3
158	-7	22	-57	4
157	-1	21	-46	3
158	-1	17	-13	-1
157	3	18	-11	-6
157	5	15	18	-4
157	14	19	0	4
157	26	25	16	-2
157	22	22	48	5
158	11	17	50	3
158	4	13	31	-4
158	5	14	-26	-6
158	7	20	-34	-5
157	4	17	59	-12
158	-2	13	82	-8
157	-1	21	-8	2
157	3	24	-62	10
157	5	23	-7	9
157	-1	14	28	1
157	-3	11	-21	-6
157	-1	13	26	-12
157	-1	15	77	-9
157	5	16	33	-2
157	4	22	-81	9
158	5	20	-36	6
158	5	14	36	7
157	5	18	8	17
157	5	15	81	16
158	5	17	52	25
158	4	19	3	13
158	2	18	-30	-9
158	6	19	-39	-5
158	4	17	-21	-5
157	3	16	-39	-13
157	4	13	-41	-21
158	3	16	-41	-15
157	4	17	22	-2
158	5	19	6	3
157	6	20	-16	6
157	5	25	-11	6
158	4	24	0	14
157	4	18	49	12
157	5	19	50	10
157	8	21	40	2
158	8	19	22	1
157	6	18	16	14
158	3	15	34	18
158	5	13	51	9
157	5	19	27	-3
157	5	15	26	2
158	4	15	65	-11
158	0	17	30	-14
158	3	21	-129	1
158	7	28	-75	1
158	5	16	77	4
157	5	19	0	3
157	9	22	-1	-2
157	8	19	-9	3
158	4	21	-6	7
158	5	17	23	7
157	-2	10	1	7
157	-16	9	15	-1
157	-25	14	-2	6
157	-13	10	5	11
158	-1	14	7	9
158	7	18	14	6
157	12	15	18	3
158	29	23	3	-6
158	47	28	3	-16
158	49	31	24	-6
157	32	33	66	-6
158	20	27	58	-2
158	20	17	-9	5
158	9	17	-78	2
158	1	19	-14	3
159	-2	19	46	5
157	-4	18	83	9
157	-5	12	102	11
158	-2	17	-54	12
158	2	22	-119	7
157	1	14	-75	10
158	-1	12	-25	-8
158	-1	17	16	-14
158	2	15	-6	-8
158	1	15	-7	-10
157	1	16	-3	9
158	1	17	45	7
157	-8	15	36	-1
158	-8	15	-10	-9
158	-5	22	2	2
158	1	18	50	2
157	1	16	48	-1
157	-1	20	12	5
158	0	15	24	3
157	-1	16	8	2
158	2	19	24	-4
158	4	18	18	2
158	5	15	0	6
158	6	16	6	-2
158	5	18	-1	-9
158	3	21	1	-6
157	7	22	21	-4
158	6	19	34	-4
158	5	17	-10	11
158	7	7	-13	13
157	3	11	12	-2
157	7	20	2	0
158	4	14	10	9
157	4	19	-2	6
157	8	19	-27	14
157	6	14	-28	19
157	7	19	-14	13
158	5	23	-7	-5
157	11	21	2	-10
158	12	20	28	-15
157	9	19	82	-9
158	7	16	102	-2
158	7	19	2	-2
158	8	23	-68	2
157	4	21	-51	0
158	5	20	-11	8
157	4	13	16	7
157	3	17	28	-6
157	1	20	83	-2
158	-5	12	29	3
157	1	24	-114	9
158	8	25	-45	0
157	4	12	67	-8
157	8	19	23	-8
157	13	20	38	-14
158	20	21	38	-7
158	24	25	37	-7
158	14	22	41	11
158	11	14	1	13
158	5	9	39	4
157	1	15	71	11
157	-4	15	99	13
157	-6	15	67	17
158	-3	12	-64	17
158	-2	15	-229	6
158	1	25	-175	-4
157	1	19	-12	-4
158	-1	22	-9	-4
158	0	21	41	-16
157	9	26	-29	-18
158	24	31	-78	-15
158	15	16	22	-12
158	5	19	91	-6
157	4	17	122	-1
158	3	21	16	8
157	4	23	-32	24
157	1	22	22	19
157	1	18	23	10
158	3	16	4	6
158	-1	13	-4	-2
157	1	14	-28	-11
157	3	17	-50	-19
157	4	15	-49	-4
157	3	18	-26	4
157	-1	15	13	3
157	-7	15	41	5
158	-2	15	71	3
158	8	17	105	6
157	4	18	82	9
158	8	23	26	8
157	10	18	22	6
157	14	17	15	-4
158	18	20	21	0
158	15	21	24	7
158	9	22	0	2
158	9	19	-4	9
158	7	19	8	11
157	2	14	10	10
158	-2	14	-17	15
157	0	13	-9	14
157	2	15	6	3
157	1	16	18	-9
158	5	14	21	-12
157	9	15	5	-9
157	2	13	4	-7
158	1	18	-7	0
158	2	17	-10	15
158	1	17	-9	21
157	1	23	-12	12
157	3	23	-3	-2
158	5	26	5	-4
158	3	29	24	-4
158	-4	23	43	-1
158	-7	17	36	6
158	-4	11	-24	4
157	1	18	-63	-23
157	2	21	4	-21
157	12	16	43	4
157	21	22	24	-4
157	31	27	42	0
158	23	25	59	20
159	12	20	44	33
158	14	19	2	27
158	12	17	-63	20
158	3	15	-142	10
158	3	16	-62	13
157	3	13	20	16
157	2	16	-27	-5
158	-1	15	5	-13
157	1	14	-8	-26
158	8	19	40	-35
158	7	19	58	-29
158	5	15	51	-30
157	3	15	93	-29
157	1	17	79	-21
157	-2	16	132	-9
157	-3	13	59	0
158	1	12	-145	8
158	4	21	-199	2
157	4	19	-20	-4
158	3	18	10	-4
158	3	19	-1	5
158	2	18	57	12
158	3	20	64	7
158	3	15	80	3
158	6	15	-59	3
158	10	23	-40	7
158	5	17	50	7
158	5	15	5	14
157	5	19	15	29
157	8	22	-32	23
158	13	28	-58	12
157	11	26	-10	17
158	7	18	4	16
158	5	18	21	2
158	4	17	27	-8
157	6	13	38	-10
159	5	11	50	-2
158	5	16	22	-15
158	5	14	46	-18
158	1	17	78	-17
158	5	22	36	-30
157	7	26	-31	-14
157	7	22	-31	-2
157	3	19	7	3
158	4	21	6	14
158	5	18	0	27
157	5	15	-25	26
157	6	14	-20	18
158	4	15	-9	28
158	7	16	1	15
157	5	19	38	6
157	3	18	30	4
157	4	15	-16	4
157	9	17	-20	-3
158	7	19	6	-6
158	5	19	6	-5
157	8	21	15	-5
157	5	24	18	3
158	5	24	74	-5
157	5	20	150	-7
158	5	11	70	-3
157	4	9	-148	-6
157	5	24	-167	-16
158	4	20	27	-4
157	1	13	-5	1
157	2	17	-21	-5
157	0	14	34	6
158	0	19	6	13
158	1	20	5	15
158	0	21	8	10
157	-2	24	38	14
158	2	21	40	22
157	-5	14	97	14
157	-14	11	106	-13
157	-5	17	-25	-11
157	9	23	-126	15
157	18	21	-98	10
158	28	22	-30	11
158	28	21	17	9
158	26	21	23	15
157	32	22	17	13
158	25	18	49	4
157	12	17	15	0
159	11	17	1	-15
157	4	20	-14	-22
158	0	17	-45	-27
157	0	20	9	-31
158	-1	19	30	-28
158	-4	17	-16	-14
157	-1	13	-24	-13
158	-2	12	-24	3
158	-3	16	33	16
157	-4	16	99	18
157	-1	14	70	16
158	2	17	33	9
157	0	20	17	13
158	-3	15	24	13
157	-1	15	32	6
157	1	19	17	-6
157	-1	20	2	-10
158	3	20	10	-10
157	5	19	2	-12
158	9	19	-29	-5
157	13	23	-10	-4
158	7	22	20	-7
158	3	19	6	1
158	-1	17	21	3
158	-2	19	13	0
158	-3	20	4	5
157	2	19	14	2
158	4	19	-10	-1
157	5	19	-1	0
158	5	22	28	1
157	3	21	43	11
157	4	17	-2	24
158	7	15	-32	23
157	5	13	0	22
157	5	12	9	17
157	6	13	54	7
157	5	13	56	2
158	5	15	-52	11
157	8	17	-134	17
158	11	20	-23	10
158	4	11	61	8
158	4	14	-23	-11
157	10	24	-56	-21
158	11	23	-8	-29
157	8	19	66	-42
157	4	17	21	-25
157	4	19	-11	-21
157	5	24	46	-9
157	4	18	69	-1
157	4	12	-22	10
158	5	25	-149	30
157	7	25	-16	29
158	0	13	135	22
157	0	16	43	7
157	4	19	-32	3
158	7	27	-25	-5
158	7	26	30	-15
157	5	24	-9	-9
158	2	16	19	-8
159	0	9	41	-4
158	6	18	7	-11
157	7	17	43	-18
158	4	14	-6	-26
158	3	12	-13	-26
157	1	12	2	-4
158	5	14	22	7
158	5	19	-5	11
158	8	22	-33	18
158	8	16	0	23
158	5	19	8	22
158	5	19	33	25
158	5	19	43	23
157	5	17	52	23
158	1	17	36	12
158	1	13	4	3
157	1	20	-15	-11
157	8	25	25	-15
157	9	22	75	-11
157	6	21	63	-11
158	-1	15	32	11
157	-5	12	-32	11
157	-3	19	-14	2
157	0	21	54	-7
158	2	19	9	-5
157	11	22	-98	8
157	16	28	-93	11
157	22	22	8	10
157	21	13	-4	8
158	11	17	-19	-9
157	4	18	4	-13
158	7	17	-10	8
157	6	19	30	10
157	6	18	29	6
158	7	16	-15	3
157	3	17	-35	5
158	-1	15	24	6
157	-1	11	34	10
158	-2	16	-11	8
158	0	17	-13	11
157	4	19	-3	7
158	5	19	16	4
158	5	15	-7	8
157	0	13	4	3
157	0	17	7	-3
157	10	22	42	-20
157	11	22	105	-10
158	3	17	110	-9
157	2	20	-3	-3
157	5	26	-87	2
157	-8	26	32	0
157	-16	17	36	13
157	-3	17	26	12
157	0	17	50	-6
158	3	21	-78	-1
157	15	28	-112	10
157	17	21	-40	-6
158	23	17	21	-9
158	30	23	15	-3
157	24	22	22	-10
157	19	22	18	-11
157	14	21	-2	-4
157	8	15	37	-5
157	2	14	29	2
157	0	13	24	3
157	0	9	26	4
157	-2	14	25	6
157	-2	14	33	2
158	1	17	21	-1
158	3	19	-14	-4
158	3	17	-32	5
157	2	19	-22	-1
158	3	19	-7	-5
157	1	18	24	-11
158	3	18	37	-14
158	2	18	30	-8
158	4	17	27	-1
157	6	17	33	8
158	3	17	20	9
157	2	13	29	7
157	-1	16	48	-5
157	-4	15	-12	2
157	-5	17	-102	13
158	-6	20	-65	13
158	-2	18	-16	22
158	1	22	-6	18
157	4	18	46	20
157	5	12	55	10
157	12	8	48	-1
158	20	16	-46	-1
158	22	26	-91	-4
157	12	22	-13	-7
158	11	19	2	-1
157	9	23	14	-1
157	4	22	21	-1
158	5	22	25	5
157	2	23	39	-1
158	2	18	37	-4
158	0	18	40	3
158	2	20	17	-1
158	5	22	0	1
158	6	20	6	-1
157	3	16	13	-12
157	2	15	5	-15
157	4	19	-8	-13
158	3	19	-6	3
159	5	17	44	12
158	4	14	97	12
158	4	9	42	23
158	8	22	-114	35
157	8	26	-91	39
158	8	15	27	31
157	5	18	-28	36
158	8	14	-1	23
157	3	14	-4	6
157	4	19	-19	-8
158	3	19	87	-22
158	4	17	165	-40
157	3	17	93	-54
158	8	24	-60	-38
157	11	21	-25	-34
158	5	21	0	-43
158	9	24	15	-44
158	7	19	0	-30
158	9	24	-25	-9
158	10	21	10	-2
158	10	19	-49	-5
158	8	16	-59	6
158	3	13	5	13
158	1	14	61	15
158	-3	12	16	14
157	3	18	13	14
157	8	23	32	20
157	7	21	15	14
157	2	17	50	15
157	-9	17	83	13
157	-16	18	50	7
157	-5	21	-81	9
158	9	22	-95	14
159	5	15	-18	16
157	8	18	-45	19
158	12	17	-29	22
158	14	14	39	8
157	17	16	26	2
157	14	19	-8	1
157	15	23	0	10
157	17	24	35	7
158	7	19	51	10
157	-1	13	63	12
158	-2	14	-3	10
158	-2	15	-88	15
158	-6	18	-23	7
157	-7	17	22	-3
158	-3	14	33	1
157	2	13	47	-1
157	4	14	11	-11
157	9	17	9	-6
157	17	18	45	-6
158	19	19	87	-7
157	10	19	34	-6
157	7	22	-90	6
158	10	24	-47	4
157	5	16	51	1
157	0	17	14	7
157	2	15	22	-6
157	-4	15	-4	-1
158	-1	21	-36	0
157	1	18	1	-2
158	3	20	-7	-5
157	5	18	4	-1
157	4	19	-3	5
158	7	22	-4	2
158	5	17	0	2
157	6	15	11	4
157	8	19	25	13
157	7	21	21	9
158	6	18	22	0
157	3	15	12	3
158	5	17	9	8
158	3	18	37	7
158	1	15	88	9
157	2	14	41	18
157	6	18	-70	24
157	7	17	-48	4
158	2	13	-10	-3
157	7	20	-68	-14
158	8	21	-33	-36
157	5	19	36	-39
157	7	18	82	-53
157	3	12	59	-43
158	3	18	-67	-15
158	8	23	-47	8
158	7	21	31	21
158	4	19	-3	24
157	1	15	16	27
158	3	15	7	13
157	4	22	-13	4
157	5	20	5	8
157	9	21	0	7
157	16	23	19	8
157	11	19	5	11
157	4	18	33	2
157	5	16	82	-7
158	2	19	59	-14
157	1	19	33	-24
157	4	14	-8	-27
158	5	18	-31	-7
158	3	17	-14	-7
158	3	17	-26	-9
158	3	19	-29	-4
158	3	17	-31	-2
157	8	22	-14	2
158	7	25	72	5
157	3	22	86	7
158	5	21	42	10
157	3	13	28	17
158	4	12	-21	12
158	7	20	-6	5
157	4	21	9	9
157	3	21	-11	11
157	1	15	6	24
158	4	13	-7	17
158	8	17	-7	-6
158	7	21	-31	6
158	7	19	-6	10
158	4	18	28	6
157	3	19	13	9
157	2	17	21	5
158	1	15	23	6
158	3	17	67	4
158	3	15	32	-3
157	8	23	-108	9
158	12	30	-101	9
157	3	17	13	0
157	4	17	12	7
157	10	14	41	-2
157	5	14	44	-2
158	7	20	3	5
158	-3	11	45	7
157	-11	14	24	-3
157	-8	17	53	-9
157	-4	13	80	-12
158	-7	11	29	-14
158	-1	14	-61	-1
157	16	22	-55	-5
158	24	25	6	-2
157	25	29	-4	4
158	16	25	33	3
157	15	22	13	4
158	26	19	-28	-11
158	28	26	-30	0
158	17	27	7	8
158	5	21	43	11
158	4	21	48	11
157	-1	17	-14	10
157	-1	18	-116	3
158	-1	19	-25	-13
158	-9	14	30	-5
157	-4	18	10	-1
157	-1	20	29	-1
158	-2	16	2	8
158	-2	14	12	2
157	5	15	14	-6
157	14	17	33	-2
158	8	18	49	-8
158	4	22	25	-9
158	5	18	15	5
157	4	13	7	7
157	3	11	-40	7
157	5	15	-37	3
157	1	14	25	-2
158	-1	10	-6	7
158	5	12	-34	9
158	5	14	-23	-1
157	7	15	3	-1
158	7	15	41	-8
157	3	16	54	-11
158	2	19	45	-5
158	3	18	50	-5
158	1	17	34	3
157	5	17	13	8
157	4	22	10	5
157	4	23	6	6
157	4	22	2	9
157	7	24	-12	10
157	6	19	1	12
158	4	17	3	11
158	1	14	19	4
158	0	15	31	2
157	9	20	21	-4
158	9	22	22	-12
158	7	23	1	-9
157	7	24	6	3
157	2	22	14	0
157	-2	21	15	-6
157	-15	19	11	-6
157	-7	17	46	-6
158	-1	17	37	-2
157	3	19	-113	9
158	12	25	-124	9
158	11	18	-4	-1
158	21	17	-43	2
157	26	22	-55	4
158	18	19	1	6
157	12	21	35	12
157	8	18	56	15
158	5	21	69	15
158	5	15	113	11
157	7	11	57	11
157	8	19	-32	15
157	5	19	-40	14
157	2	10	-27	7
157	3	15	-32	-2
157	4	18	20	-8
157	0	16	52	-4
157	-3	14	39	-5
158	-6	8	51	-16
157	-6	14	15	-30
157	-5	12	-21	-28
158	-1	15	4	-12
158	1	19	34	-4
157	1	19	16	4
157	16	20	-12	2
157	22	22	-34	6
158	12	22	-17	7
157	5	18	12	2
158	10	21	31	4
157	7	15	71	-4
158	5	22	23	-4
157	5	24	-75	17
157	3	19	-43	19
158	4	17	30	10
157	8	15	41	14
158	11	14	30	-5
158	9	17	-53	-11
159	5	22	-53	-9
158	3	17	21	-13
157	3	19	5	3
158	4	19	2	2
158	4	19	15	4
157	8	21	24	14
158	5	18	24	17
158	4	19	15	17
157	4	18	9	13
158	3	19	1	7
157	8	19	18	0
158	9	18	10	-12
157	5	21	-6	-21
158	3	22	-10	-14
157	5	20	-7	-12
157	5	19	13	-4
158	5	20	12	-1
157	4	19	-2	1
158	3	17	1	7
157	4	14	18	10
158	5	15	39	2
158	4	19	38	3
157	7	19	23	14
157	7	18	36	8
157	5	17	29	8
157	4	15	19	7
157	4	15	12	6
157	3	16	-13	5
157	4	14	-7	1
157	4	14	9	4
158	2	18	6	9
157	-2	13	-6	7
158	-3	15	-10	-2
157	-3	17	-19	-15
158	-3	19	-34	-21
158	1	19	-35	-7
157	3	21	1	-6
157	5	23	81	-2
158	13	19	103	-1
158	19	19	-35	11
158	15	28	-99	13
158	12	23	25	-2
157	11	19	27	-1
158	9	25	-2	-7
158	6	17	23	-1
158	5	18	24	4
158	9	18	88	6
158	5	17	104	8
158	5	17	18	0
158	5	22	-131	6
157	7	27	-68	-1
158	2	20	44	-2
157	3	22	-30	11
158	8	19	4	9
157	3	17	15	0
158	3	17	6	-6
157	1	18	3	-7
158	0	19	7	-14
158	1	16	86	-5
157	-1	15	82	-5
158	1	16	-43	-10
158	4	23	-149	9
157	8	18	-35	9
158	1	15	10	10
157	1	17	-28	7
158	3	15	6	1
158	6	14	-6	2
158	5	16	22	-1
158	5	21	14	0
158	8	19	24	1
158	7	17	26	-5
157	3	19	7	-9
157	5	18	8	0
157	3	20	-4	6
157	-4	17	3	7
157	-7	14	-13	12
158	-5	15	6	17
158	-3	15	19	10
157	0	17	24	5
158	5	17	63	14
158	18	19	112	15
158	29	23	54	9
157	25	21	13	7
157	12	17	28	-1
159	8	24	-8	-4
158	5	19	33	3
158	3	16	28	1
158	6	21	14	-5
157	3	19	19	-11
158	-12	17	12	-19
157	-10	17	27	-17
158	0	14	2	-18
158	1	16	-27	-12
157	8	17	-28	-4
158	8	17	1	-4
158	15	21	-1	-1
158	25	19	6	2
158	24	15	-2	6
157	18	18	-6	6
158	10	19	-5	-2
157	5	19	-39	3
157	1	19	-40	4
157	-1	16	-14	9
158	-4	16	-8	15
158	-2	16	-5	10
157	0	15	5	10
158	-1	17	1	9
157	1	15	6	13
158	3	14	13	7
157	3	17	11	6
157	1	15	6	4
159	4	18	6	6
158	3	22	18	8
157	3	19	25	2
158	4	20	20	4
157	3	22	19	5
158	4	17	53	8
158	3	15	110	4
157	1	13	69	0
157	3	13	-131	5
158	6	24	-84	-2
158	0	14	124	-7
158	-1	10	-60	6
157	7	26	-135	-1
158	5	23	9	-16
158	5	22	-6	8
158	5	20	17	4
158	-1	20	25	-1
157	3	23	1	-2
157	11	22	-9	-7
157	6	16	-17	-20
157	1	18	2	-29
158	5	25	14	-1
158	1	17	29	0
157	0	19	36	7
157	2	17	32	8
158	7	18	19	4
158	12	22	15	7
157	10	20	28	-1
158	10	23	36	-2
158	8	19	46	-2
157	8	17	19	-6
158	7	16	-7	-14
158	7	17	20	-7
158	3	16	0	3
158	7	17	-41	18
158	8	13	10	22
157	5	13	33	7
157	3	19	22	7
158	1	16	29	4
158	1	15	-15	0
157	-1	15	-15	5
158	-8	14	20	7
157	-6	17	36	7
157	-6	16	18	0
157	-11	17	-37	4
158	-3	19	-36	4
158	6	15	-13	-1
157	15	21	-9	0
158	26	24	9	-4
157	30	26	18	-7
158	35	28	39	-7
158	41	23	40	-6
158	25	21	8	0
158	11	18	14	1
157	7	13	29	-3
159	2	15	9	0
157	3	18	0	-1
157	1	15	16	-3
158	1	17	28	1
158	-1	15	17	4
158	0	13	12	0
157	-2	14	6	2
157	0	20	-19	7
158	1	21	-18	4
157	3	19	0	8
157	1	14	15	13
158	-1	14	33	4
158	1	22	22	6
157	1	19	9	7
158	3	15	4	3
158	3	15	2	7
157	-1	12	65	4
158	-1	13	35	-11
158	5	24	-110	-16
157	8	24	-58	-18
159	2	16	45	-7
158	2	13	-57	9
158	1	19	-101	13
158	4	15	-21	8
157	1	12	25	9
158	3	19	60	2
157	8	22	69	-2
157	9	24	32	2
157	5	22	28	-2
158	9	28	31	0
157	19	28	35	8
157	12	21	79	14
157	4	8	93	10
158	3	13	-6	-11
158	6	30	-132	-6
158	7	22	-57	11
158	0	17	17	9
157	2	22	-18	2
158	5	18	13	-3
158	4	18	11	-8
157	4	17	32	-6
158	3	19	21	-6
158	7	22	-9	0
157	5	19	29	6
158	7	15	13	0
157	5	18	8	4
158	4	19	11	3
158	4	17	-19	-2
158	5	18	-22	7
157	5	16	0	14
157	9	18	4	20
158	8	21	20	20
158	6	14	25	15
158	5	14	-9	4
158	4	17	-25	-13
158	4	18	0	-26
157	-1	13	15	-34
158	1	11	26	-21
157	4	15	59	-12
158	0	13	17	-12
157	5	18	2	-6
157	5	21	77	-7
157	3	19	81	-7
157	8	21	4	4
157	5	17	-45	17
157	6	16	-43	7
157	5	16	-15	6
158	5	15	-7	10
158	3	15	-12	3
157	4	19	-22	9
157	10	22	-14	11
158	5	19	-5	4
157	5	21	7	-1
157	9	22	15	-1
158	9	20	5	0
157	8	24	-12	0
157	6	23	-5	2
158	4	21	50	6
158	4	24	88	12
157	7	17	78	18
157	7	12	-23	16
157	5	15	-145	10
158	-3	15	-69	-1
158	-6	15	2	-6
158	3	18	-21	8
157	9	17	17	10
157	9	19	39	10
157	12	17	54	6
157	15	18	19	4
157	14	21	3	0
157	8	20	38	-4
158	12	22	28	7
157	16	21	23	4
158	9	16	19	-13
158	0	15	55	-24
159	1	13	30	-2
158	7	19	-48	3
158	11	26	-22	-6
157	1	19	-6	0
157	-3	22	-31	-4
157	-3	19	10	2
157	-1	15	41	1
158	-2	13	88	-6
158	-2	7	62	-5
158	2	19	-58	4
158	6	25	-30	3
157	6	19	10	0
157	5	21	-20	2
158	4	22	8	0
157	4	21	15	4
157	4	22	26	2
157	4	16	41	8
158	4	16	32	12
157	4	15	36	9
157	1	13	4	15
157	1	13	2	9
158	4	18	9	-15
157	4	21	-17	-19
159	-7	18	-54	-1
159	-11	22	-23	4
157	-3	17	24	11
158	0	15	6	2
157	3	15	-10	-1
157	11	14	-18	6
158	17	17	3	2
158	23	19	-6	0
157	24	19	-36	-6
158	14	20	0	-11
157	8	22	35	-8
157	11	24	18	-3
157	14	24	17	-1
157	12	21	38	7
157	2	14	37	7
157	1	15	34	-1
157	0	16	12	1
158	2	15	24	-6
158	3	15	41	-16
158	1	17	-13	-3
158	3	24	-11	10
157	0	22	72	5
158	0	11	51	5
157	-1	15	-59	6
157	1	23	-90	2
158	3	22	-8	-6
157	1	18	20	-8
158	3	25	3	-4
158	3	24	11	9
158	1	22	-25	20
158	3	20	-16	19
157	8	22	-15	14
157	8	23	-8	7
157	9	19	10	3
158	8	17	13	9
158	6	15	34	10
157	9	15	38	1
158	1	15	60	3
157	-4	14	87	0
157	-4	9	70	-9
158	-6	6	8	-14
158	-5	5	-25	-15
158	-1	13	-35	0
157	3	19	-14	10
158	14	19	33	12
157	24	22	16	7
158	19	24	0	4
157	17	22	8	-6
157	12	18	22	-17
158	8	17	8	0
158	10	21	-27	-1
158	8	24	-37	6
158	7	25	-44	-1
157	5	21	-8	-16
158	4	19	26	-20
158	3	19	68	-17
157	5	14	56	1
158	4	19	-69	5
157	8	23	-85	6
157	3	19	-29	1
157	3	23	-32	6
158	3	21	5	3
158	3	21	15	7
157	5	22	29	12
157	3	19	61	19
157	1	21	42	18
158	1	19	31	11
158	3	15	16	7
157	2	13	8	-1
158	0	12	2	6
158	5	15	23	3
157	5	15	44	8
157	7	17	22	6
158	3	16	-10	8
158	5	14	1	6
158	5	18	38	0
158	3	18	26	-2
157	5	18	16	4
157	3	19	-2	9
157	1	18	-16	-3
158	-12	17	12	-4
158	-13	21	-6	-11
158	-1	18	-19	-6
158	0	15	-17	-3
157	5	17	-12	-2
157	11	16	10	-1
158	16	16	3	2
157	25	20	5	2
157	24	19	6	3
157	18	19	6	6
158	16	21	11	-1
158	16	20	4	5
158	10	21	6	7
157	5	19	3	0
157	3	17	19	-7
157	-3	19	98	-9
157	-4	15	172	-8
157	-6	8	27	3
157	0	17	-222	11
158	5	24	-129	-18
157	-3	13	37	-13
158	-1	19	4	7
158	-3	17	65	7
157	-1	13	46	15
158	11	22	-39	6
157	12	20	-51	3
157	3	20	20	0
157	3	18	47	7
158	7	22	-6	1
158	9	20	30	-3
158	8	18	24	1
157	5	17	24	-1
158	11	19	10	1
158	14	21	15	2
157	8	19	28	4
158	-5	21	19	7
158	-12	18	39	11
158	-9	22	66	6
158	-5	15	56	-1
158	0	8	-49	-3
158	6	11	-84	-15
159	18	17	-36	-7
158	26	17	4	6
157	24	22	10	2
157	18	25	20	10
157	12	15	13	6
158	15	16	4	5
157	8	15	44	2
157	5	21	18	0
158	4	22	-20	7
158	3	22	-16	-3
158	-1	21	-24	-8
157	-1	19	-14	-6
157	3	21	-3	2
158	0	19	30	11
157	2	14	86	8
157	0	9	17	-7
158	4	17	-101	-16
158	6	19	-59	-17
157	4	19	6	-9
158	7	21	-3	0
158	8	19	27	4
158	7	18	23	7
157	1	18	12	11
157	0	20	13	10
157	1	19	34	12
157	0	15	46	13
157	2	16	19	10
158	2	21	42	6
157	4	19	45	-9
157	1	16	-14	-6
158	5	18	-35	2
158	9	17	4	-1
158	8	18	-3	4
157	8	17	7	10
158	8	15	20	11
157	10	16	7	4
158	7	14	14	-1
157	7	17	16	-15
158	4	19	37	-25
157	1	15	10	-9
158	0	17	-9	-1
157	3	15	-11	-3
158	6	16	-6	-4
158	11	21	4	0
157	10	22	-2	3
157	8	21	7	0
157	4	19	13	-1
158	1	17	19	-3
158	2	18	9	0
158	4	21	6	8
158	8	23	-4	15
159	7	21	-8	15
158	3	19	12	11
157	7	20	22	14
157	5	22	28	15
158	5	21	24	14
157	3	16	14	12
157	1	18	-10	11
158	-2	16	-18	2
158	0	21	-3	0
157	-3	21	28	-2
157	-4	15	56	-3
158	1	18	-2	-1
158	1	25	-21	-6
158	4	17	87	-4
158	5	17	1	-8
158	14	25	-123	-3
158	10	20	-33	-3
157	5	24	-15	2
158	3	23	31	18
157	0	16	47	14
158	1	13	-7	7
158	4	9	-25	-7
157	8	18	-35	-26
157	9	21	0	-9
158	10	17	5	-2
158	11	17	34	-4
158	7	17	34	2
158	5	18	16	-2
157	1	17	6	6
157	1	17	-5	4
158	4	16	24	4
157	-1	13	25	6
159	-1	14	10	4
157	10	17	-38	-2
158	7	19	-31	-3
157	13	17	10	0
158	24	22	21	-3
158	22	23	50	4
157	12	17	42	4
157	10	19	24	7
157	10	15	31	8
158	7	17	21	9
158	3	17	8	7
158	1	18	10	0
157	-3	16	43	3
158	-4	9	69	-4
158	-4	11	9	-2
158	1	25	-64	4
158	8	26	-11	-4
157	2	16	29	-3
158	2	19	14	3
158	3	15	15	0
158	0	13	-26	-1
157	2	17	-24	-2
157	2	18	3	-3
157	2	19	8	-15
158	0	19	-4	-12
157	3	21	-7	2
158	3	17	11	4
158	2	14	31	8
157	3	12	56	3
158	2	13	32	0
158	4	17	-26	-7
157	11	30	-59	-2
157	18	29	4	9
158	13	19	23	10
157	8	17	-37	10
158	7	13	-27	-4
158	3	17	-12	-5
158	3	14	8	7
157	5	14	17	7
157	8	17	20	9
158	7	16	65	0
158	7	15	58	2
158	7	15	59	14
157	6	17	112	17
157	4	14	94	23
157	0	15	-40	21
157	3	24	-146	4
158	5	22	-58	-11
158	3	22	-33	-9
158	7	25	-36	-11
157	7	19	30	-20
158	5	22	-4	-22
158	8	23	12	-33
158	8	19	-4	-45
158	6	17	-16	-32
157	5	18	12	-10
157	7	23	45	1
158	4	22	66	11
157	3	18	59	12
158	6	15	89	18
158	4	21	51	22
157	5	14	-3	16
157	12	20	-128	21
158	10	24	-90	17
158	3	13	33	15
157	3	15	-30	19
158	5	16	5	4
158	6	22	17	6
157	4	21	26	11
158	1	19	4	-1
158	5	25	-48	4
157	5	19	-4	4
158	5	20	-3	-2
157	3	19	4	-9
157	3	18	6	-5
158	5	18	10	6
157	5	21	21	1
158	5	17	35	-2
158	5	18	37	-4
158	4	17	32	3
158	5	18	35	3
158	9	19	18	1
157	6	18	22	9
157	3	18	7	8
157	5	14	1	3
158	2	15	-8	0
157	4	14	-17	1
157	6	18	10	0
158	8	18	24	2
157	8	18	18	5
157	4	22	8	6
158	3	19	5	7
157	3	18	9	3
158	2	22	11	4
157	4	24	30	6
158	3	21	71	6
157	4	15	26	-7
157	5	21	-92	-17
157	8	21	-70	-22
158	1	11	1	-19
157	5	19	-26	-2
157	8	19	1	-2
157	3	12	16	4
158	3	11	23	9
157	1	13	30	-1
158	3	17	-6	3
158	5	17	-4	13
156	4	13	7	16
158	0	12	8	9
158	1	17	12	-2
157	4	15	20	-5
157	5	18	-1	-6
158	10	21	3	-8
157	10	22	22	-1
158	1	19	27	5
159	-1	19	28	6
158	0	18	13	4
158	-2	11	13	-1
157	1	12	23	-6
158	0	15	35	-1
157	0	22	18	0
157	-3	19	4	3
157	2	22	16	7
158	12	27	52	8
158	14	22	39	9
157	6	21	-79	8
158	9	27	-98	4
158	18	23	8	-6
158	19	20	12	0
157	18	22	1	-4
158	9	19	-12	-5
158	6	20	-21	-3
157	7	18	37	-6
158	3	17	29	0
158	0	13	3	-3
157	0	10	-13	-5
158	2	14	10	-2
157	3	14	29	-7
157	3	16	28	-7
157	1	17	55	-1
158	0	15	43	0
157	-1	15	8	15
158	1	18	-40	13
157	7	21	-16	9
157	10	19	10	8
157	5	20	5	1
157	3	19	20	8
157	1	18	13	13
158	-3	14	22	6
157	-4	12	39	-11
157	0	14	56	-8
157	5	15	-36	0
157	9	28	-116	0
158	8	27	-12	-8
158	4	17	7	-10
158	8	22	-17	-2
156	11	18	58	-2
158	7	23	32	4
158	5	27	18	6
157	6	21	22	17
158	6	12	-18	20
157	6	15	1	15
157	4	19	13	15
158	7	13	43	7
158	5	13	52	-6
158	3	13	-24	-16
158	10	24	-33	-21
158	10	23	52	-10
157	9	14	27	11
157	10	12	-18	11
157	3	14	-2	-4
157	5	15	-11	0
157	5	16	21	1
157	5	19	23	0
157	8	17	4	-9
157	5	19	-34	-5
158	8	19	-41	4
157	7	18	2	0
158	3	17	17	5
157	2	14	64	9
157	4	17	3	7
157	9	24	-83	2
159	8	24	5	-2
157	4	19	61	-6
158	1	19	37	-7
158	4	22	35	3
157	5	19	8	10
157	5	19	1	10
158	2	18	-6	17
157	3	19	-16	12
157	4	19	-4	10
157	4	18	7	7
157	3	15	22	-8
158	3	16	10	-9
157	2	20	2	-9
157	3	20	2	-5
157	5	20	7	-2
158	3	19	6	-2
158	5	19	6	-1
158	10	23	10	-1
157	5	22	15	-3
158	6	22	26	3
159	10	22	8	9
158	10	19	-10	13
157	8	18	15	12
158	4	14	52	10
158	3	10	27	7
158	4	15	-1	-7
159	1	17	19	-15
158	1	12	24	-4
157	5	15	-26	2
157	9	21	-47	8
158	5	11	0	14
158	1	14	-9	6
157	2	18	-2	0
157	-1	15	-17	1
158	4	18	-6	-1
158	3	18	25	-6
158	6	21	8	-12
158	5	21	28	-5
158	5	21	18	-7
158	8	22	28	-4
158	11	22	17	8
158	9	15	-10	-1
158	5	17	-18	-11
158	7	24	-9	-8
157	7	19	15	-2
158	4	19	-7	-2
158	5	19	-9	2
157	4	23	-5	4
157	6	22	1	5
157	4	21	4	7
158	4	21	22	9
158	3	17	72	20
158	5	17	18	9
158	10	23	-110	11
157	10	24	-50	3
158	3	10	102	-12
157	2	16	62	1
157	5	21	1	0
157	5	19	-24	12
157	3	14	27	13
158	0	7	33	-5
157	1	15	6	-10
157	-6	12	49	-15
157	-12	16	10	-10
157	-8	18	40	-4
157	-5	14	23	-3
158	4	14	-7	3
157	0	17	0	9
158	5	18	-6	9
157	11	17	5	10
158	26	21	2	3
158	32	21	20	9
158	19	18	30	9
158	14	18	48	0
157	10	21	29	6
157	4	20	11	6
157	1	23	49	-5
157	4	19	59	-5
157	5	16	-54	0
157	5	15	-121	1
157	1	14	-25	-5
157	1	17	-23	-1
158	10	13	-12	2
157	11	15	-8	2
158	10	22	-26	1
157	5	25	6	-4
157	-1	23	2	-1
157	1	19	18	-4
157	-1	22	9	7
158	1	19	20	15
157	1	13	27	5
158	1	16	10	-6
157	2	15	-11	-3
158	1	9	-12	-2
158	3	19	30	0
158	7	23	42	4
158	8	19	57	6
158	4	15	53	11
158	5	13	20	-1
158	5	15	-48	-6
157	5	20	-65	-2
157	1	14	16	2
157	3	13	-7	11
157	5	19	-26	15
158	1	14	1	11
157	1	17	-16	8
158	3	22	-12	4
158	5	21	-2	-3
158	5	19	-1	-4
157	7	19	-7	-7
158	5	20	13	-6
158	5	23	33	-11
158	5	21	49	-17
158	3	19	47	-13
157	5	21	35	-4
157	3	17	28	4
157	2	17	15	5
158	5	19	33	1
157	5	19	38	7
158	9	22	13	9
157	11	23	8	5
158	12	21	1	8
158	7	19	2	13
157	5	18	1	13
157	8	18	6	0
157	7	17	23	-1
158	8	15	19	-2
158	6	18	8	-5
158	3	17	-5	2
158	7	18	-12	7
157	7	21	-11	1
157	8	17	-36	-4
158	5	16	-35	-10
158	1	16	-12	-4
158	1	22	7	6
158	3	18	44	2
157	3	18	43	2
157	2	15	32	-1
157	-14	13	44	1
157	-16	15	53	-8
157	-1	19	-24	1
157	5	25	-67	6
157	4	15	64	1
158	3	9	24	9
158	9	22	-72	3
157	11	24	-13	-2
158	15	27	-28	2
157	18	19	13	3
157	16	18	16	4
157	20	23	6	3
158	17	25	29	2
158	23	26	3	0
157	21	25	0	-8
157	15	26	2	-5
157	5	19	51	2
157	3	15	18	-1
158	5	15	-43	-5
158	-1	17	-27	-8
158	-3	19	8	-1
157	-4	17	-2	7
158	-2	18	-25	4
158	-3	19	-3	-1
157	4	17	6	0
158	5	15	15	2
157	-3	14	28	-8
157	-2	15	33	-1
158	0	15	22	4
157	0	19	16	8
159	3	17	18	8
157	5	15	17	9
157	7	13	17	13
158	4	10	19	7
158	7	14	3	6
157	10	15	-18	3
158	8	18	0	6
158	5	19	19	10
158	7	15	50	4
157	0	13	67	0
158	4	21	20	6
158	7	23	-15	4
157	5	22	-5	-5
158	5	19	-5	-2
157	5	18	-2	2
158	3	13	10	0
158	1	13	-3	-8
157	2	21	-12	-10
158	1	21	-32	4
158	0	17	-40	-4
158	2	16	0	3
158	5	14	-3	-1
158	4	18	-36	-17
157	5	23	-13	-8
158	4	15	45	-3
158	0	18	36	2
157	6	24	20	4
158	5	19	10	6
157	5	17	-13	8
158	3	16	15	9
158	1	17	9	6
157	8	23	13	2
158	12	25	25	8
158	14	22	25	-5
158	8	25	32	-16
158	3	23	21	-7
157	3	24	21	-2
157	4	23	32	-1
158	5	21	65	4
157	3	22	122	10
158	0	13	134	14
157	0	9	21	15
157	4	26	-69	8
157	8	29	6	4
157	4	12	-44	15
158	3	17	-155	15
158	5	19	-37	4
157	4	11	-15	-6
158	6	14	-53	-13
158	6	8	8	-11
158	7	14	35	-11
157	6	15	51	-19
158	7	14	-5	-18
157	9	24	-69	-5
158	-3	18	-22	-4
158	-7	13	-3	-2
158	-1	17	16	3
157	1	15	48	3
157	5	15	10	4
158	7	16	-10	-4
157	19	18	-13	5
157	27	18	9	-1
158	18	20	6	-2
157	14	19	20	7
158	12	16	24	9
158	10	19	-2	19
157	4	17	33	25
158	1	15	22	22
157	1	19	-25	8
157	-1	18	-11	5
157	-1	19	19	-1
158	-1	20	36	-3
157	-1	19	41	4
158	0	22	31	8
157	1	21	8	10
157	5	25	-4	8
157	3	23	8	10
158	2	15	28	19
157	1	18	35	15
158	-3	15	9	2
158	3	15	-44	1
157	5	17	5	-9
157	3	20	80	-24
157	3	21	-13	-28
157	6	17	-37	-36
157	7	15	-8	-24
157	11	21	-9	-22
158	12	28	27	-16
158	7	22	51	2
157	5	19	58	2
157	5	19	15	1
157	0	14	-5	1
157	1	16	-19	7
157	5	15	-28	10
157	3	14	-27	9
157	3	15	-14	10
157	5	16	7	10
158	7	20	4	3
158	7	21	31	4
157	7	21	46	6
158	4	18	46	9
157	8	16	18	18
158	9	17	-29	18
158	10	20	-41	13
158	8	17	-50	12
158	5	10	-49	-1
157	5	15	-28	-23
157	2	15	-4	-11
158	3	16	28	-3
157	5	26	12	2
157	6	23	25	26
158	5	20	31	27
158	0	17	9	33
158	0	12	9	27
158	4	17	0	23
157	4	17	43	17
158	7	21	44	11
158	6	19	27	6
158	4	17	34	-6
158	8	15	51	-18
157	7	14	83	-44
157	6	12	43	-51
157	8	18	-43	-47
159	10	24	-40	-51
157	8	19	83	-55
158	3	21	94	-25
158	4	15	-1	4
158	6	19	-134	10
157	9	26	-108	14
159	8	19	2	8
158	5	20	-38	10
158	5	18	3	20
157	5	16	17	22
158	6	19	21	28
157	6	21	40	26
158	6	18	-7	32
157	5	14	-15	30
158	4	17	-9	13
158	4	17	5	10
157	4	18	4	0
158	5	21	23	-13
157	7	15	27	-15
157	7	21	71	-6
158	3	19	129	-4
158	0	12	70	-3
158	3	19	-120	9
157	8	25	-157	2
158	6	18	-13	4
158	0	15	-8	9
158	2	19	25	-3
157	2	22	-3	-2
157	5	22	-22	0
157	5	22	37	3
157	5	20	18	0
157	10	17	34	0
158	3	18	21	6
158	5	21	26	7
158	5	19	19	14
158	5	15	11	17
157	7	15	10	11
157	5	18	0	-2
158	4	23	-1	-8
158	4	22	-2	-5
157	4	19	19	4
158	7	22	18	13
158	8	16	20	6
157	5	13	21	-11
157	3	19	4	-7
158	5	16	-22	2
158	4	15	2	-6
158	4	16	25	3
157	10	15	8	2
158	4	19	19	-1
158	-2	14	20	-1
158	1	15	19	-7
158	2	19	55	-6
158	3	15	105	-25
158	3	17	64	-30
157	4	17	-80	-21
157	5	23	-102	-4
158	5	21	14	0
158	4	15	30	5
157	5	14	7	10
157	5	21	-30	0
157	7	24	-70	8
157	5	19	-12	6
158	2	17	-25	7
157	5	19	-19	6
158	6	16	35	2
157	4	22	30	9
157	5	17	27	20
157	1	16	23	30
158	1	18	25	22
158	5	20	27	16
157	6	24	36	-1
157	6	23	27	-6
158	6	19	-8	-8
158	5	16	-43	-15
157	7	20	-28	-14
158	7	21	14	-16
157	7	19	8	-15
157	6	17	1	-16
157	8	16	8	-12
157	9	18	35	-13
157	8	14	58	-1
157	2	13	47	12
157	4	8	21	16
158	8	15	-19	21
157	8	22	17	13
158	3	18	70	11
158	-1	16	40	-12
158	-2	22	-63	-2
158	5	26	-109	17
158	3	17	9	1
158	1	14	2	6
157	8	19	-6	3
158	3	17	22	11
158	7	19	-12	6
158	7	18	10	2
158	5	18	-3	8
158	9	18	8	7
158	9	22	9	6
158	5	19	14	6
158	5	15	30	14
158	5	17	34	7
158	5	18	25	6
158	5	19	29	-3
158	4	17	36	-6
158	5	18	-7	-8
157	3	17	-16	-23
158	8	18	-24	-9
158	7	14	3	7
158	7	15	14	-2
157	9	19	19	-6
157	7	17	21	-15
158	7	16	16	-21
158	5	16	14	-24
159	6	23	-2	-24
157	7	22	-1	-15
158	4	18	-13	-2
158	3	20	-12	9
158	5	21	-4	12
158	4	17	11	19
158	4	16	14	17
157	7	21	0	14
157	4	19	10	9
158	5	18	10	0
158	4	19	15	-2
158	3	18	9	5
157	7	17	13	23
157	3	17	66	25
158	1	13	89	16
157	1	17	-57	11
158	0	18	-115	5
158	2	17	57	0
157	0	15	84	11
157	2	17	-35	21
158	6	19	-61	22
158	5	17	-7	14
157	2	16	26	9
157	5	14	31	4
158	5	11	31	-1
157	8	17	-7	-17
158	11	28	-5	-32
158	10	29	2	-21
158	6	23	-9	-14
158	1	16	-25	0
158	1	15	-6	-11
157	4	19	0	-22
157	5	20	-35	-12
157	7	21	-1	-9
157	5	21	12	-3
157	5	22	30	0
158	3	24	29	-3
158	2	23	1	-10
158	2	17	13	-10
158	5	15	4	-2
158	7	17	2	3
158	6	18	15	11
159	3	16	62	14
157	5	18	91	18
157	8	15	68	29
157	8	18	9	28
158	9	22	-48	25
158	8	15	-48	26
158	3	14	-75	30
157	7	14	-49	15
158	8	15	-5	6
158	10	19	-21	6
158	5	14	12	5
157	4	19	33	8
158	3	19	64	-10
158	3	15	104	-24
158	5	20	111	-38
157	6	24	82	-53
159	3	18	57	-51
158	3	11	-23	-39
158	5	15	-71	-18
158	4	21	-24	-2
158	5	18	-22	-1
158	3	17	-5	5
158	5	19	19	11
157	5	21	45	13
158	7	22	45	15
158	5	18	-41	22
157	9	21	-61	25
157	6	17	7	21
157	5	15	-19	28
159	5	16	-6	27
158	0	16	25	14
157	3	19	-27	11
158	2	17	-4	0
159	2	17	19	-11
158	1	22	3	2
157	3	24	-86	10
158	6	26	-68	2
157	4	19	17	0
158	7	19	17	2
158	8	19	49	8
157	5	17	28	10
158	7	19	28	-2
157	3	14	25	-9
157	1	8	5	-2
157	4	13	6	3
158	8	24	-22	2
158	7	19	-19	9
157	9	22	-23	17
158	7	22	36	21
158	4	15	95	13
158	3	21	69	-2
158	1	15	60	4
158	5	12	7	2
157	4	19	-46	2
157	7	19	-29	3
158	8	16	0	-5
157	7	19	41	-10
157	8	21	89	-26
158	3	19	104	-48
157	-1	18	18	-50
158	3	16	-127	-17
158	11	27	-141	-6
158	5	21	2	-6
158	4	17	14	11
158	7	20	2	7
158	4	14	5	14
157	6	15	-6	33
158	2	15	54	36
158	4	19	13	41
158	7	19	-31	41
158	6	17	-15	29
158	5	18	-1	16
158	6	17	12	-9
157	8	20	13	-50
157	4	19	6	-58
158	8	21	6	-44
158	10	20	59	-43
158	8	19	83	-24
158	7	19	15	-17
157	7	21	4	-15
157	8	18	43	-12
158	5	20	21	-13
157	5	22	-31	2
157	4	23	8	1
158	0	18	135	11
158	-3	12	143	25
158	1	12	60	23
158	5	14	-84	29
157	7	18	-72	11
158	5	15	-6	-2
158	3	17	-70	17
158	4	16	-40	11
157	3	20	-46	14
158	5	18	-22	21
157	4	17	-26	23
157	4	15	-24	22
158	2	14	7	15
159	5	18	-16	11
158	4	19	11	3
157	8	21	4	6
157	8	15	6	8
157	5	16	4	5
158	7	17	-4	-7
157	5	16	-1	-2
158	5	14	1	2
158	6	15	-9	11
158	5	19	-9	7
158	7	19	58	5
157	6	19	81	17
158	4	15	35	21
157	4	15	17	11
158	4	20	40	-11
158	5	21	57	-6
159	4	15	70	-22
157	0	15	36	-38
157	3	10	0	-36
158	6	11	-63	-14
158	11	25	-115	6
157	10	16	-12	0
158	5	19	-25	7
157	8	20	-33	3
158	4	13	15	7
157	7	15	7	-6
158	5	16	39	-18
159	7	19	-15	-16
158	5	22	-7	-24
158	4	22	12	-20
158	4	19	27	-9
158	3	23	53	13
158	8	21	17	7
157	7	19	13	9
158	5	19	16	12
157	8	19	12	8
158	1	24	29	12
157	1	21	110	17
158	0	18	102	23
157	3	18	-58	21
158	8	23	-123	14
157	5	18	-2	13
157	1	12	34	27
157	3	15	0	12
158	3	19	6	1
157	5	26	3	10
158	4	21	15	7
158	7	21	-90	10
158	6	20	-75	-1
157	0	14	10	-5
158	2	17	26	6
158	5	16	74	0
158	4	19	20	-15
158	7	19	38	-33
158	7	20	62	-43
157	6	22	19	-37
158	10	18	-28	-42
158	9	21	-16	-30
157	7	21	43	-1
157	8	18	18	4
157	3	18	12	15
157	3	20	-7	13
157	2	18	-27	11
158	2	15	-17	9
157	3	14	-21	5
157	3	17	-36	3
157	4	22	-18	18
157	5	19	29	31
158	4	17	62	25
158	5	20	95	22
157	4	18	45	4
158	4	18	33	0
158	4	19	67	-10
159	8	17	54	-16
157	7	15	28	-14
157	4	17	-22	-15
158	5	14	-32	-5
157	7	16	-25	-1
157	6	19	-28	-6
157	4	16	-20	-4
157	4	19	-25	12
158	3	17	-28	13
157	5	19	0	12
158	7	22	19	9
157	4	18	25	15
157	6	17	58	16
157	3	13	55	3
158	2	12	-10	-6
158	7	24	-69	-7
158	6	18	-34	7
158	4	11	-35	4
158	4	16	-37	3
157	2	16	-5	15
157	3	18	-15	16
157	4	19	38	18
157	4	18	89	21
157	4	13	138	15
158	3	11	0	11
158	8	19	-217	2
157	9	24	-89	-13
158	4	17	40	-28
157	5	19	4	-22
158	7	22	33	-18
158	3	23	21	-18
158	5	25	24	-12
158	3	19	35	-2
158	5	18	30	5
158	8	15	55	8
157	7	8	69	15
158	3	9	10	14
158	4	19	-58	14
157	4	17	15	4
157	3	15	46	10
158	7	23	12	16
157	7	21	9	8
158	4	21	-3	4
157	4	21	-5	-3
157	3	23	-12	-9
157	4	21	-3	-10
158	8	22	13	-9
158	8	19	43	-9
158	5	17	33	-12
158	10	15	16	-22
158	4	16	29	-25
158	1	21	41	-11
157	5	17	28	11
157	8	18	-15	9
158	5	19	-23	10
157	4	19	-52	31
157	5	19	-13	49
157	3	18	32	55
157	3	18	-6	51
157	3	19	-6	46
157	1	15	13	12
158	1	21	39	-27
157	6	25	84	-67
157	8	14	54	-104
158	1	12	-23	-73
158	1	15	-12	-51
157	1	21	10	-43
158	0	23	30	-8
158	5	19	18	2
157	3	15	-18	0
158	8	24	-34	11
158	4	30	-16	10
158	4	22	3	17
157	7	22	-27	27
158	4	16	-8	24
157	5	17	4	26
158	2	13	2	24
157	3	11	-17	26
158	5	19	-35	8
157	7	26	-11	-9
157	7	21	29	-4
157	8	19	38	-3
158	7	18	48	-2
157	6	12	25	8
158	3	15	-31	11
158	4	14	-30	10
157	7	26	-112	24
157	11	27	-48	17
158	5	15	49	11
157	11	21	8	12
158	13	16	68	8
157	5	15	53	9
158	3	17	43	4
158	1	15	34	9
158	0	15	33	6
157	0	16	40	3
157	0	19	35	-6
159	5	17	93	-1
158	5	19	57	0
157	5	19	-54	8
158	8	26	-68	14
158	5	19	43	8
157	5	15	22	7
157	6	12	14	-9
158	4	13	5	-3
157	3	13	-44	1
158	1	7	-7	4
157	1	14	-8	-2
157	2	17	4	-1
158	1	21	6	-2
158	5	21	9	2
158	13	15	14	6
158	12	17	-4	-6
158	9	19	-38	-11
158	8	22	-68	-7
158	4	19	-16	-2
157	3	18	48	-5
157	7	19	9	-5
158	4	19	6	-8
158	3	17	33	0
157	5	16	1	2
157	5	17	-5	-1
158	8	21	-36	0
157	8	22	-49	2
159	5	19	-5	27
157	5	16	27	41
157	3	17	13	33
158	2	17	32	19
158	2	17	87	21
157	5	11	95	9
157	3	15	87	-11
157	3	19	-1	-21
157	6	17	-48	-42
158	8	22	-26	-58
158	5	19	-27	-71
158	5	19	-12	-72
158	7	22	-3	-70
158	5	23	64	-52
157	5	16	89	-21
158	3	14	67	4
158	4	14	-17	38
158	5	21	-80	57
157	2	21	34	51
157	3	14	20	50
158	5	17	-6	42
157	5	17	43	23
157	2	16	17	-3
158	4	21	-60	-1
157	9	34	-146	15
157	10	25	-97	-7
158	5	19	-77	-13
157	9	25	-37	-17
158	3	14	95	-19
157	1	16	132	-12
157	8	23	122	-3
158	9	24	107	7
157	10	25	10	7
157	8	21	-94	4
158	4	16	-18	6
157	3	13	2	9
158	1	14	3	3
157	1	13	1	14
157	4	21	-37	23
158	8	23	1	23
157	3	21	18	29
158	6	17	63	26
158	7	15	62	26
157	5	17	41	19
157	7	15	67	4
158	7	17	20	-10
158	5	21	-47	-18
158	7	22	-33	-22
158	8	21	-19	-6
157	7	20	15	7
158	7	17	56	3
157	5	17	45	19
158	5	17	45	13
158	3	19	-31	0
157	4	22	-66	-15
157	3	15	-35	-6
157	5	15	-70	7
157	6	21	-46	0
157	4	18	48	2
157	7	12	77	-6
157	5	14	12	-4
157	5	21	-4	0
158	5	17	20	0
157	4	17	27	-5
158	9	22	12	-13
158	3	15	-5	-4
158	1	17	-7	3
157	1	20	-8	2
158	1	21	-18	2
158	2	18	-41	6
158	0	17	-31	6
158	0	20	39	3
157	0	16	70	3
158	3	13	-4	2
158	5	13	-23	2
158	5	18	3	-6
158	7	16	10	-4
158	11	17	2	-2
157	8	18	4	-6
158	4	21	66	4
157	3	19	87	12
157	2	11	17	18
157	7	18	-86	12
158	8	21	-18	2
157	7	20	70	0
157	5	19	-14	-2
157	5	20	-1	-13
157	3	21	17	-18
157	5	16	6	-4
157	5	17	30	4
158	7	21	12	12
158	3	18	25	16
158	3	14	8	17
157	3	14	12	3
158	7	15	19	-9
157	8	20	4	-8
157	7	18	38	-12
157	6	11	77	-11
157	4	14	-23	-21
157	9	28	-141	-13
158	9	22	-32	-3
157	1	15	10	-8
158	5	21	-21	2
157	5	19	15	2
157	5	21	-7	6
159	8	18	19	12
158	5	18	27	19
157	1	13	26	21
157	0	12	35	22
158	5	15	19	31
157	7	14	8	35
157	5	17	39	30
157	6	18	120	20
158	5	23	34	16
158	7	20	-27	4
158	7	15	-12	-23
158	8	14	-22	-46
158	8	24	-66	-49
157	10	24	-98	-75
158	3	22	-6	-71
158	2	22	14	-33
157	3	11	33	-18
158	1	13	32	-6
157	4	19	2	0
158	1	19	31	10
157	3	21	8	5
157	3	22	-22	12
157	1	19	4	11
157	4	15	33	11
158	5	17	29	14
158	9	18	44	15
158	6	15	28	23
157	5	17	-17	23
157	5	19	-1	22
158	5	19	32	14
157	3	17	17	21
157	0	14	31	19
157	1	19	66	6
158	4	22	58	8
158	7	19	13	6
158	3	19	4	12
158	2	15	63	23
157	4	10	48	13
157	1	13	-54	8
158	4	18	-138	0
158	7	17	-80	-7
158	2	17	-45	-2
158	5	17	-47	2
158	9	23	24	2
158	8	18	8	3
157	8	17	34	8
158	5	21	47	6
158	3	12	26	2
158	3	7	-11	-4
158	6	19	-58	-14
157	7	26	0	-14
158	8	19	21	5
157	9	20	17	8
157	7	19	33	8
158	8	18	48	4
157	8	20	70	-1
158	4	15	49	-10
157	3	17	-78	-6
157	8	27	-95	6
157	5	23	50	-6
157	4	17	15	2
157	5	19	14	-4
158	1	17	6	-7
157	6	22	-51	4
157	6	21	21	12
157	5	21	28	24
157	8	22	66	14
157	8	20	38	13
158	8	15	5	4
158	5	13	22	-9
157	5	20	-21	-14
157	3	16	-26	-23
158	9	22	12	-12
157	5	18	65	-11
158	1	18	32	-19
157	4	24	-56	-7
157	6	24	-51	-1
157	0	16	22	-2
158	-2	18	4	6
157	5	18	0	9
157	2	17	6	4
157	4	24	-7	-2
157	4	19	2	-12
157	4	18	-22	-6
157	3	15	2	7
158	3	16	35	4
157	4	23	80	4
157	1	22	59	10
158	5	16	4	16
158	7	16	46	8
158	6	18	37	3
158	3	17	4	6
157	3	15	4	-1
158	3	15	-15	-2
159	2	21	-11	0
158	8	19	-2	0
158	8	17	-24	-3
157	12	18	-29	0
158	9	17	-10	2
157	4	18	32	-8
157	4	18	46	-2
157	7	17	27	1
157	11	15	33	6
157	10	20	22	8
157	9	21	4	10
158	8	19	6	14
157	5	21	16	11
158	0	22	67	10
157	2	16	68	2
157	6	15	-47	2
157	11	18	-125	-4
158	3	18	-48	-15
157	2	19	-45	-17
157	4	19	-42	-21
157	3	17	17	-19
158	3	15	-4	-3
157	2	15	38	0
157	1	17	18	15
158	3	14	-15	14
159	5	19	-21	2
158	9	28	-4	-1
157	5	22	48	8
157	6	16	26	12
158	4	15	55	0
157	3	17	70	0
159	4	20	37	2
158	5	9	13	1
157	6	11	0	6
157	12	23	41	0
158	9	15	85	-5
158	5	14	-33	11
158	11	26	-99	13
157	5	18	16	7
158	4	14	5	-1
157	3	19	6	0
158	0	17	48	7
157	4	18	24	7
158	3	12	13	6
157	3	15	-33	7
157	5	19	-29	7
157	6	21	-12	0
158	3	23	7	2
157	5	15	11	4
158	5	12	-6	6
158	6	11	40	4
158	4	14	68	-7
157	3	13	90	-20
158	1	21	14	-24
157	4	28	-71	-24
158	9	30	-39	-5
157	1	17	-32	4
158	3	13	-35	6
157	5	19	-32	3
158	2	21	14	-1
158	4	21	69	-6
159	3	18	62	-7
158	4	21	-12	-3
158	7	24	-27	0
158	8	24	20	12
158	3	16	0	15
158	3	15	-7	9
157	5	21	-10	12
157	5	21	-4	10
158	2	20	1	12
157	3	22	5	10
158	3	22	9	3
158	3	19	-4	5
158	0	18	5	10
157	3	19	46	14
157	7	21	120	18
157	5	15	94	18
158	5	15	-80	9
157	5	19	-131	0
157	8	14	-31	-19
158	7	22	-19	-28
158	8	23	-11	-19
158	10	17	3	-9
158	5	19	13	-1
157	3	17	31	-5
157	4	17	13	-5
157	5	16	37	6
158	6	14	47	14
157	8	13	70	13
157	5	15	52	8
158	5	18	-9	8
157	5	17	-19	3
157	3	19	-27	9
157	5	17	-20	10
158	3	13	-3	6
158	-2	5	-36	11
158	1	12	-16	-5
157	7	24	87	-15
158	6	17	63	0
157	7	15	26	-4
157	5	19	4	-10
157	6	18	-17	-22
157	5	21	42	-18
158	3	19	54	-20
157	7	19	-32	-22
157	11	31	-101	-4
158	10	24	29	1
157	5	15	38	12
158	5	22	-6	12
157	3	15	19	9
157	4	18	-33	8
158	10	24	-5	13
157	8	22	15	7
157	7	19	37	-1
157	3	14	15	-1
157	4	12	-12	0
157	10	16	15	2
157	5	17	-9	1
157	7	17	-23	2
157	8	19	-11	3
157	5	16	22	2
157	8	15	61	6
158	5	18	54	2
157	4	18	84	0
158	-1	13	90	-1
158	0	14	-56	7
158	6	23	-78	10
157	9	20	29	9
157	10	16	5	13
158	9	17	-29	3
158	4	19	-35	2
157	8	23	-78	0
158	4	24	-62	3
158	2	22	-16	7
157	3	22	-7	3
158	5	25	4	5
157	6	19	19	-4
158	3	15	29	-9
157	3	17	50	-7
157	4	17	72	2
157	1	19	64	0
157	3	24	39	-8
158	7	25	28	-13
157	4	19	-20	8
157	4	12	-21	12
157	1	12	23	3
158	3	17	51	13
157	1	19	85	-2
157	2	18	23	6
157	5	17	-86	20
158	7	22	-37	18
157	5	14	44	20
158	4	17	17	0
158	4	21	23	-10
157	5	17	-11	-12
158	7	25	-38	-19
157	8	22	-18	-19
157	4	19	-29	-9
158	5	17	-32	4
157	3	13	-30	-6
157	8	18	6	-14
158	8	24	16	-1
157	3	19	35	12
158	3	16	67	15
159	0	10	49	17
158	0	8	13	16
158	1	13	44	7
158	2	11	65	2
157	7	17	-60	9
158	8	28	-108	13
158	5	22	2	6
158	5	17	9	8
157	8	18	8	-2
157	5	18	23	-16
158	5	26	10	-17
158	3	19	43	-18
157	5	15	3	-10
158	7	19	-35	-3
157	11	25	-12	10
158	10	25	36	10
157	8	25	59	0
158	8	18	56	3
158	3	13	32	-2
157	3	14	36	-5
159	3	9	7	-1
157	5	17	-46	-6
158	5	21	-1	-15
157	1	16	1	-21
158	5	22	-9	-23
157	5	18	4	-14
157	5	17	-15	-12
157	5	17	-29	-6
158	5	15	-22	19
158	5	14	-6	24
157	5	18	-11	15
158	4	21	-15	14
157	6	22	-22	11
157	5	19	25	8
158	3	13	82	8
157	5	17	63	7
157	5	20	52	7
158	1	21	53	14
158	5	17	24	12
157	5	18	19	5
158	5	24	15	1
157	4	20	-17	5
158	3	15	-17	13
158	2	11	-25	14
158	2	19	-16	8
158	2	18	16	1
157	5	16	15	-5
158	6	17	5	-16
157	7	21	1	-20
158	6	22	17	-8
158	7	17	10	-8
158	7	17	1	-1
157	5	16	16	7
157	2	18	30	0
157	2	18	51	3
158	4	18	-5	10
158	7	19	-114	15
158	8	21	-55	1
158	1	12	25	4
157	4	15	-14	6
158	8	21	10	0
158	5	18	30	6
158	7	22	41	9
157	6	19	60	2
157	9	15	23	6
157	4	15	-4	11
158	5	18	-8	8
158	5	13	1	19
157	4	13	-24	11
158	4	14	-49	-2
159	6	19	-31	7
157	7	18	4	3
157	4	20	13	3
158	7	22	10	5
157	5	15	-18	-4
158	4	17	-27	-16
158	3	15	31	-10
158	2	19	61	2
157	0	17	87	-9
158	2	14	47	-11
157	9	18	-50	-11
157	8	21	-25	-18
157	5	18	13	-16
157	5	15	-40	-13
157	6	21	6	-16
157	5	19	73	-9
157	6	16	47	-6
158	5	17	28	-8
157	3	16	4	-6
158	3	18	-26	4
157	4	20	36	14
158	1	13	89	22
157	3	12	16	39
157	5	23	-75	31
158	8	23	-75	17
157	4	17	-42	15
158	4	18	1	-7
158	5	21	50	-6
158	6	21	53	-9
158	5	18	-6	-30
157	4	19	-33	-42
158	3	16	2	-39
158	1	19	6	-16
158	5	23	1	2
158	7	26	-21	16
158	9	24	4	13
158	5	18	64	11
158	3	15	77	11
157	5	14	56	9
157	8	17	45	11
158	7	18	10	11
157	9	17	4	16
157	9	13	35	7
157	5	19	24	-2
158	5	23	68	2
157	5	13	-12	20
158	5	15	-114	25
157	4	14	-38	19
158	2	13	-26	18
157	4	15	-23	23
157	4	15	20	16
158	6	22	-21	17
158	8	22	-4	17
157	5	17	30	9
157	5	19	26	5
158	5	19	45	-3
157	2	21	17	-8
158	3	25	16	-9
158	7	25	3	-11
158	7	21	-9	-15
157	5	17	24	-22
157	5	20	43	-25
157	3	21	10	-23
157	4	24	-21	-16
157	7	24	-16	-11
158	6	23	-9	-4
157	2	16	-8	4
158	5	17	-23	8
157	2	12	-13	11
158	1	13	12	-1
158	5	24	29	-1
157	11	24	10	4
158	10	17	0	6
157	10	18	-15	11
158	9	16	-27	14
157	5	14	-22	8
158	3	18	-34	4
158	4	17	29	-1
158	5	17	87	4
157	5	16	71	9
157	4	17	6	-1
158	5	18	-12	2
157	3	18	-30	12
157	8	21	-45	15
158	9	18	31	1
157	8	16	36	-3
158	3	15	17	-12
157	-1	16	4	-14
157	0	17	13	-12
158	-1	17	32	-12
158	2	19	6	-8
157	5	18	13	-10
159	7	17	10	-7
158	5	19	12	-6
158	2	20	28	-1
158	5	22	47	-7
158	7	25	37	-11
158	8	22	10	-6
157	4	15	4	-5
158	3	17	-5	-11
157	6	22	20	-9
157	3	13	80	9
157	1	7	116	21
158	0	15	-56	31
157	10	24	-214	29
158	10	22	-39	9
158	5	18	8	1
157	9	24	-39	-6
158	3	19	6	-18
157	3	21	-37	-17
157	5	17	-14	-3
158	3	16	-6	10
158	8	17	-3	11
158	1	15	15	15
158	5	19	23	18
157	8	16	77	18
157	9	17	111	10
157	8	17	83	15
158	3	20	-9	10
157	3	24	2	7
157	8	20	1	13
158	10	19	-11	9
158	9	19	40	-1
158	4	17	68	-4
157	4	11	64	2
157	3	16	19	-9
158	2	19	24	-6
157	4	14	9	4
157	2	14	-36	-2
158	3	19	-20	3
158	5	18	8	11
158	4	17	-24	12
157	6	20	-39	16
157	4	17	-24	13
157	8	18	-39	11
158	4	17	-25	9
158	5	19	-26	-11
158	3	21	5	-15
158	1	16	30	-16
157	3	17	15	-23
158	1	16	16	-10
157	1	18	10	1
157	3	19	37	7
157	3	15	32	1
157	5	19	1	-6
157	1	19	-15	-4
158	1	21	3	-6
158	3	19	-6	-8
157	7	22	-96	-1
158	10	26	-110	-1
158	7	20	16	-11
157	4	12	78	-13
158	6	15	18	-1
157	5	15	25	-13
158	1	11	40	-19
157	3	18	56	-12
158	7	17	90	-7
157	8	19	32	-12
158	7	24	17	-14
157	3	17	59	5
157	3	15	60	11
158	4	18	7	15
158	8	19	-81	18
158	13	20	-27	17
157	9	20	41	16
158	5	19	4	14
158	6	19	13	16
157	4	15	-11	22
158	4	21	0	15
157	5	25	13	13
157	3	19	-35	16
157	5	16	-23	14
158	4	18	3	13
158	6	19	9	1
157	8	17	12	-10
158	5	17	38	-19
157	7	18	22	-14
158	10	20	-16	-11
157	8	19	-21	-4
158	9	19	0	0
157	8	20	25	-9
157	4	15	23	-6
157	3	13	29	-3
158	4	16	16	2
157	2	16	33	-1
158	1	16	39	1
157	1	10	-49	13
157	7	21	-95	9
158	9	27	9	8
157	8	20	52	18
157	9	19	-3	23
157	5	11	-17	11
157	4	21	-34	0
157	4	21	-17	-8
157	6	19	-14	-6
157	4	19	63	7
157	1	14	105	14
157	3	17	21	-4
158	5	17	-2	-38
158	7	19	6	-53
158	5	22	13	-44
157	7	19	5	-15
157	7	12	20	4
157	4	14	27	4
158	3	21	12	13
158	3	18	-7	17
157	5	17	-33	20
157	6	18	-10	19
157	7	19	-3	14
157	3	18	-8	10
157	0	19	1	4
157	3	18	8	-6
158	2	17	21	4
158	2	20	53	13
157	0	16	56	23
157	4	19	-32	33
158	7	21	-73	33
158	3	15	-30	26
158	1	19	-21	12
158	5	23	-32	13
158	4	19	-30	2
158	5	21	48	-9
157	5	17	95	-19
158	3	16	47	-32
157	5	17	66	-36
157	5	15	39	-25
157	6	19	-13	-21
158	7	19	26	-24
158	5	18	40	-9
158	4	22	78	-7
157	5	20	37	-6
157	11	19	-78	0
158	7	14	-49	-8
158	1	9	-31	-15
157	7	12	-23	-15
157	9	15	41	4
158	8	14	10	5
158	4	16	-12	13
158	0	17	24	16
157	-3	15	38	5
159	-3	21	-16	7
158	3	23	-44	12
157	7	22	-15	15
157	8	21	6	14
158	10	24	9	11
158	4	23	-7	8
157	5	22	-1	14
157	6	21	23	20
157	5	19	30	29
158	3	20	23	24
157	5	16	4	-1
158	4	13	1	-13
157	3	13	8	-5
158	7	13	-5	3
158	8	18	-17	3
158	5	20	-11	10
158	8	19	13	8
157	5	21	40	7
158	4	20	26	6
157	6	11	-7	9
158	5	15	-11	3
158	7	17	20	-2
158	3	16	25	0
158	3	18	40	-2
157	3	14	84	-1
157	2	15	28	-2
158	10	24	-85	4
157	9	24	-44	-4
158	7	19	38	-4
158	4	17	-10	9
158	4	14	0	3
157	5	16	37	-4
158	6	19	34	-10
158	8	17	-10	-2
158	10	22	-34	11
157	5	15	-10	7
157	7	17	-43	-3
157	7	19	-24	-14
158	5	17	3	-22
157	5	18	39	-31
158	4	19	48	-22
157	5	24	6	-2
158	4	17	6	9
158	3	17	66	8
158	2	19	73	-6
159	5	25	-59	11
157	10	24	-42	24
158	7	17	38	11
158	4	22	29	5
157	3	17	45	-5
157	3	15	19	-2
158	2	21	32	-3
157	2	21	56	-2
157	3	17	3	8
157	9	15	-83	19
158	11	17	-82	17
157	7	16	6	13
158	4	16	-9	17
158	8	17	33	9
158	4	17	67	0
158	3	19	40	-15
158	3	18	31	-26
158	-1	19	7	-29
158	3	18	-36	-18
158	6	25	-71	-10
157	9	24	-8	-17
159	5	19	-20	2
158	3	25	-10	4
158	6	22	35	-4
158	4	17	15	-1
158	4	15	0	-13
157	1	11	-26	-9
158	1	8	-1	4
158	3	17	31	-13
157	-1	15	89	-7
157	4	14	85	4
157	10	25	21	3
157	7	24	2	5
157	3	21	17	2
158	4	19	10	2
157	5	17	-10	3
158	6	19	-4	9
158	9	22	-36	15
158	11	23	-51	22
157	5	21	-63	27
157	4	19	-44	24
157	3	21	8	22
158	3	22	35	23
157	4	15	48	13
157	2	9	55	-2
158	1	9	104	-13
158	4	14	123	-24
158	4	15	37	-9
158	11	23	-105	2
157	7	25	-52	0
158	4	19	-5	-3
158	1	18	-31	-1
158	-3	15	6	6
158	0	18	-26	6
158	5	17	12	7
158	4	18	13	7
157	5	19	16	9
157	4	17	34	8
158	4	18	19	13
158	5	14	38	19
158	5	16	18	14
158	5	17	15	18
157	5	17	13	20
157	3	20	10	16
157	4	21	-20	9
158	7	20	-13	-6
158	10	24	37	-20
157	9	26	17	-25
157	9	21	-2	-30
158	5	22	2	-19
157	4	18	21	-15
158	4	15	-7	-10
157	8	17	-93	1
158	10	21	-48	0
158	7	16	74	2
157	3	13	131	8
157	5	15	41	13
158	7	14	-124	12
158	4	22	-61	19
158	5	15	10	24
158	5	17	-51	22
157	2	11	-25	19
157	3	13	-30	6
157	7	27	-5	-19
157	7	22	89	-22
157	5	16	116	-25
157	6	16	34	-32
157	5	14	30	-22
158	2	18	50	-20
158	3	22	37	-21
158	1	21	35	-14
158	7	27	0	-4
157	10	25	52	0
157	7	17	51	-6
157	3	14	-3	-8
158	5	19	-84	-21
157	8	30	-61	-36
158	6	19	1	-10
157	8	15	-30	11
157	5	17	3	9
158	1	15	-32	14
157	5	17	-26	14
158	9	17	2	16
157	8	18	-2	14
158	9	18	37	16
158	7	17	42	18
158	4	14	25	15
157	6	19	-13	19
157	3	26	0	23
157	2	19	58	25
157	3	12	64	21
157	5	12	0	12
157	2	16	-25	6
157	3	21	14	9
157	5	17	14	7
157	4	16	6	13
157	5	15	3	12
157	5	16	2	6
158	3	20	5	9
158	3	21	9	2
158	4	17	25	-1
158	5	14	16	3
158	10	20	-3	-1
158	13	19	-17	-4
157	7	18	-18	-5
158	3	19	-15	-8
158	0	16	-2	-6
157	-1	15	18	-4
158	3	17	15	2
158	7	15	16	11
158	6	15	33	15
158	4	17	60	-1
157	1	15	28	-3
157	1	15	-22	-3
158	2	17	-6	-1
158	5	19	-16	16
157	3	19	-8	10
158	2	18	49	-4
158	4	19	43	-17
157	5	18	41	-28
157	8	18	123	-40
157	5	17	62	-30
158	6	21	-70	5
157	4	19	-78	9
157	5	19	-110	9
157	10	22	-72	0
158	3	19	16	-6
158	4	21	-22	8
157	5	21	8	8
158	5	20	23	7
157	4	17	6	9
157	3	19	23	14
158	6	25	18	9
157	5	25	54	10
157	3	23	53	12
158	0	14	16	10
157	4	15	-29	-4
158	5	23	4	-21
157	4	21	17	-1
158	4	17	9	2
158	5	19	9	-5
158	7	19	-33	-4
158	7	24	-39	-5
157	5	25	-26	-13
158	4	22	10	-16
158	5	21	8	-5
158	4	18	3	-1
158	2	16	-6	4
157	1	14	-1	-6
158	1	21	12	-19
157	8	25	35	-6
157	8	18	37	2
157	6	16	-15	0
158	3	14	-34	14
157	5	15	-74	20
158	9	13	-31	16
157	8	11	15	14
158	6	19	59	18
157	7	18	147	31
158	4	17	117	33
158	4	15	6	21
157	8	19	-26	9
158	8	21	23	-1
158	9	20	16	-16
158	8	19	38	-14
158	7	15	42	-12
158	5	10	43	-16
158	8	18	40	-17
158	9	24	-5	-8
158	7	19	-16	-7
158	0	18	-3	-15
157	-1	15	7	-7
158	2	22	-28	-4
158	3	20	-38	-4
158	8	22	-31	-1
158	10	21	-19	6
158	7	22	-38	12
158	4	19	-51	10
158	0	17	50	13
158	4	22	40	15
158	8	25	-64	15
157	7	18	57	14
158	3	8	145	4
157	3	19	48	-12
157	8	19	34	-23
157	4	15	37	-24
158	5	14	-19	-25
157	7	21	-130	-15
157	7	22	-48	8
157	3	13	84	11
157	1	11	23	9
158	4	18	-56	19
158	7	27	-79	13
158	7	13	42	3
158	3	9	6	16
158	5	15	-25	9
158	4	15	-17	7
158	7	23	-35	9
157	5	18	25	7
158	5	19	-4	8
158	7	18	34	5
159	4	20	31	9
157	2	19	21	5
158	2	18	26	2
157	4	17	8	7
158	3	17	14	8
158	5	19	19	7
158	1	21	40	9
158	2	19	30	4
158	1	11	18	-1
157	-1	18	5	-16
157	2	28	25	-17
158	5	25	21	2
157	5	17	6	2
158	10	17	-7	4
158	16	19	5	2
157	13	19	40	-1
158	7	15	10	3
158	6	18	15	-7
158	3	14	12	-4
157	3	11	-36	-2
158	4	14	-72	0
157	5	19	-42	-6
157	5	15	-21	-1
157	9	14	-82	-1
158	10	21	-26	-8
157	8	18	52	-3
158	4	23	29	-3
157	1	22	27	-5
157	1	22	22	-3
157	-6	21	31	-1
158	-13	17	45	3
158	-17	11	37	12
158	-7	13	23	10
157	0	22	26	5
158	9	22	43	4
157	13	23	46	-4
158	15	18	10	-4
157	22	18	-53	-4
159	23	20	-35	-2
158	22	17	8	3
157	16	18	-4	-3
158	15	18	17	-2
157	12	18	14	7
157	6	17	28	14
157	2	17	108	2
158	-4	17	142	-7
157	-1	11	30	10
158	1	15	-130	5
158	3	21	-111	1
158	-2	22	-20	2
157	-1	15	-21	-3
158	10	19	-35	-4
158	15	25	-8	-2
157	4	18	45	2
158	3	16	79	-5
158	3	13	-19	-5
157	5	17	-165	4
158	5	22	-91	12
157	2	15	3	10
158	5	16	9	15
158	3	15	105	13
157	2	19	41	17
157	3	23	11	29
158	0	19	66	24
157	3	16	68	18
158	3	13	85	8
157	4	23	55	-15
158	4	25	84	-21
158	4	22	45	-24
157	4	19	19	-33
158	3	21	15	-28
157	7	25	11	-32
157	8	23	17	-37
158	3	17	-40	-30
158	6	14	-47	-20
158	5	18	-7	-2
159	3	16	19	12
157	4	17	5	13
157	4	16	18	14
157	3	18	3	13
158	2	19	-21	13
157	2	15	-24	11
157	1	18	-48	3
157	3	18	-19	2
158	6	19	0	7
158	7	19	-3	2
158	4	17	6	7
158	5	20	17	14
158	5	17	6	16
157	3	13	-35	30
158	5	14	-36	38
158	3	12	-4	24
158	5	19	-40	10
158	5	23	-3	-3
158	5	21	72	-1
158	8	16	60	-13
158	5	10	45	-24
157	1	19	-11	-26
158	5	27	-31	-14
157	8	22	10	-2
158	2	19	15	0
158	4	18	14	4
158	2	18	20	0
158	2	17	2	10
157	10	20	-11	10
158	8	18	-12	5
158	5	18	-1	9
157	7	18	4	8
158	-3	13	17	5
157	-6	13	80	-1
157	-3	15	151	-7
157	-1	16	69	-1
157	11	25	-114	18
157	10	33	-52	7
157	-8	27	49	-5
157	-6	24	-2	7
158	2	11	10	8
157	15	12	-13	7
157	27	26	17	-4
157	22	21	32	-5
157	28	25	-9	0
158	37	25	13	-3
157	27	19	12	0
157	16	20	42	1
157	7	17	45	0
157	-1	11	-50	3
157	1	23	-138	7
157	4	22	-41	-4
158	0	14	25	-1
157	-1	15	14	2
158	-3	12	45	-8
157	-2	13	-9	-2
158	1	12	9	-5
158	0	18	20	-6
157	1	15	-7	8
157	-2	11	-6	10
157	-2	13	23	7
158	-2	14	38	8
157	1	17	17	7
157	1	15	13	7
158	-3	15	-6	7
157	1	13	28	4
158	1	14	-1	8
158	3	14	-62	6
157	4	17	-40	-8
158	8	24	-11	-13
157	7	25	0	-12
157	6	19	10	-8
158	4	22	38	-11
157	0	22	49	-17
157	1	15	35	-16
157	4	14	19	-12
158	4	17	8	-16
157	5	19	2	-12
157	7	19	19	2
157	4	16	32	10
157	4	19	24	20
157	7	18	15	11
158	6	19	5	10
157	8	21	33	12
157	7	17	80	11
157	7	18	66	11
158	5	22	24	8
157	6	22	16	8
158	6	18	-47	9
158	5	23	-81	8
157	5	19	-16	-1
157	1	15	-9	2
157	3	19	0	-2
158	4	21	33	7
157	4	22	48	11
157	4	22	27	0
158	8	23	4	-4
158	9	19	11	-14
158	4	13	-1	-28
158	3	13	-4	-31
158	5	19	4	-12
157	5	19	58	-13
158	1	17	24	2
157	7	22	-51	7
158	8	19	22	-1
158	5	16	-19	15
158	11	21	-100	18
158	7	17	-8	6
158	7	19	5	12
158	6	18	13	15
158	5	13	31	4
157	3	17	-2	5
159	4	17	-8	4
158	3	18	12	11
158	0	15	34	11
158	2	11	4	11
157	3	9	5	7
158	8	19	-2	-8
157	8	23	14	2
158	5	19	52	18
158	4	15	60	22
158	3	11	15	21
157	4	21	-87	23
158	7	21	-44	8
158	3	13	2	-11
158	5	16	-51	-10
157	9	17	-7	-28
158	7	22	10	-23
159	6	24	-7	-3
158	9	20	38	0
157	9	22	64	2
158	5	14	66	6
157	8	14	35	-3
158	9	17	7	-13
159	7	18	-19	-3
158	8	19	-55	-4
157	7	19	-45	-5
158	2	16	5	7
158	1	17	23	8
158	3	21	10	4
157	5	22	-3	1
157	8	25	18	-3
157	5	18	36	-1
157	3	15	37	-1
158	2	18	20	0
157	3	17	-16	3
158	5	18	-39	-2
158	5	17	-35	0
157	9	16	-10	-1
157	8	17	4	2
157	10	20	16	8
157	9	19	20	8
157	3	16	22	7
157	3	11	45	8
157	0	11	95	14
157	-3	15	130	11
157	3	18	74	9
158	7	22	19	-6
158	4	21	-9	-25
158	3	18	-25	-10
158	3	16	29	-5
158	2	19	1	-10
158	8	23	-54	-4
158	12	25	-47	-4
158	12	22	-31	-2
157	8	21	51	1
157	5	18	104	9
158	4	9	19	10
157	3	22	-128	8
157	9	29	-86	4
157	3	16	20	-1
157	4	22	-16	1
157	3	24	-12	0
157	1	19	9	4
158	5	19	11	4
158	1	19	-2	6
157	4	23	-10	4
158	2	20	4	6
157	3	20	-11	3
158	4	21	-13	0
158	5	18	10	0
158	8	16	22	-5
158	5	20	-8	-1
157	4	21	5	4
157	4	14	41	15
157	4	14	73	23
158	4	21	80	21
157	5	17	22	19
158	6	9	24	13
158	5	14	27	-8
158	4	18	49	-14
157	4	25	99	-9
158	5	18	42	-11
157	4	3	-50	-3
157	3	2	-74	-15
157	3	13	-30	-45
158	5	16	-8	-42
157	8	14	-10	-34
158	6	17	-23	-20
158	9	21	0	2
157	11	19	46	3
158	8	19	18	3
158	5	19	19	3
157	4	15	28	-2
158	3	18	6	0
158	4	22	-8	1
158	5	21	-20	6
158	5	22	32	9
157	4	15	18	9
157	8	19	-102	23
158	11	29	-114	23
157	7	21	7	10
157	3	17	45	6
157	2	16	33	12
157	5	11	12	13
158	5	21	-23	10
157	2	22	3	15
158	1	18	3	16
158	2	21	5	14
157	3	21	-10	13
158	5	14	17	20
158	5	10	53	7
157	1	15	16	4
158	5	22	1	-4
157	7	23	38	-29
158	4	21	49	-23
157	3	19	35	-14
157	4	17	33	-4
158	7	18	12	0
158	3	19	-12	9
158	6	17	-1	14
157	9	18	23	9
157	8	21	25	7
157	7	18	18	-3
157	8	19	15	-4
158	4	22	4	-17
157	3	18	-1	-18
157	2	18	12	-3
157	5	18	10	3
158	8	19	17	5
158	7	21	43	8
158	0	16	31	14
157	1	13	-81	16
158	3	16	-108	8
158	2	14	-7	2
157	5	15	-7	2
157	5	19	29	1
158	4	13	61	0
157	13	13	-48	0
157	14	21	-77	2
157	7	18	-2	-1
158	1	15	21	2
158	0	20	7	-2
157	-7	19	24	-3
157	-1	24	19	8
157	3	25	28	3
157	1	22	16	4
158	0	21	5	2
158	1	18	-5	4
157	4	25	-18	7
158	7	19	17	4
158	8	20	54	7
157	5	15	79	21
158	5	12	40	10
158	10	15	-14	-8
158	4	17	-5	-14
157	1	15	44	-15
158	4	18	32	-1
158	6	19	14	-8
157	7	12	35	-9
157	4	15	4	-8
158	6	22	-18	-17
158	5	23	-20	-9
158	5	21	-35	-4
157	8	20	-26	1
157	10	19	17	7
157	8	18	21	12
158	5	19	-7	3
158	4	19	6	0
158	5	22	54	-4
157	9	17	96	-8
158	7	17	-3	6
157	4	17	-99	16
157	5	13	-13	17
158	5	15	-18	8
157	7	24	-60	11
158	9	22	9	13
157	9	18	-5	19
158	9	14	-27	15
157	7	17	-7	8
157	5	16	13	1
158	8	15	24	-4
158	10	17	58	-16
157	3	15	58	-25
158	5	16	40	-21
158	2	16	64	-33
158	-1	18	28	-31
158	0	19	13	-25
158	0	19	18	-15
158	3	21	24	-12
158	5	22	-5	-2
158	13	25	-23	10
158	15	22	-20	11
157	5	17	-19	14
157	3	16	14	18
157	5	16	29	19
158	4	19	33	11
157	7	20	15	17
158	4	19	31	15
157	5	23	74	5
157	3	19	72	9
157	4	12	12	14
158	5	15	-8	17
158	5	15	59	8
157	4	13	-44	14
157	6	24	-224	16
157	8	22	-67	-2
158	5	15	3	-10
157	8	24	-51	-18
158	3	22	-10	-10
157	0	25	-33	11
158	2	22	6	19
157	0	18	9	21
157	5	16	21	17
157	5	10	24	9
157	4	13	19	8
158	3	17	22	21
157	3	18	23	11
157	3	21	48	2
158	5	22	53	-2
158	7	17	40	-20
157	5	20	-4	-36
157	2	19	5	-34
157	0	18	16	-13
157	2	16	17	-7
158	3	15	21	-1
157	5	15	28	-9
158	5	19	26	-10
158	4	13	-19	-2
158	4	12	-44	-7
158	3	11	-4	4
157	3	10	27	2
157	6	21	21	11
157	8	19	58	17
157	5	22	44	16
157	5	23	1	26
158	9	19	-23	24
158	5	14	-17	15
158	7	15	-5	-8
158	5	22	-15	-5
159	6	19	12	6
157	5	22	-10	-2
158	6	21	-8	-9
157	9	22	29	-9
158	7	22	40	-4
157	5	21	23	-7
158	3	19	17	-9
158	3	15	35	-7
157	1	16	5	-2
157	4	19	-16	5
158	10	19	-20	4
157	6	19	-18	7
157	7	20	-25	3
158	4	18	-26	4
157	4	17	-27	11
157	3	16	-19	3
157	4	16	56	11
157	7	17	111	4
158	7	19	107	2
158	5	18	91	-6
158	7	16	24	-18
158	13	23	-125	-4
158	15	21	-124	3
157	9	15	-20	-1
158	8	17	-43	4
158	4	13	-21	9
157	1	16	50	2
157	1	16	83	-2
158	-1	16	49	3
158	7	18	32	8
157	8	23	29	7
157	3	25	17	1
157	1	21	-14	1
158	3	24	-9	4
158	5	16	42	9
158	4	15	-67	17
158	8	19	-62	17
158	8	19	38	11
157	4	16	27	14
157	1	14	56	13
158	3	15	58	2
157	7	14	39	-1
157	8	15	25	-1
158	7	16	-48	10
157	8	21	-39	-4
158	2	20	-6	-18
157	2	18	2	-20
158	3	16	30	-19
158	0	19	5	-17
157	3	19	10	-32
158	3	21	19	-22
157	1	19	1	-16
157	1	18	-7	-9
158	5	18	-32	-9
158	3	19	-13	-4
158	4	19	-5	4
157	7	21	-26	16
158	6	21	-22	22
158	3	17	-11	16
157	4	22	35	16
157	6	23	70	1
157	7	25	27	-5
158	7	16	-39	-19
158	9	14	-35	-16
157	5	17	21	-12
157	5	16	47	-10
157	5	17	16	7
157	4	21	0	11
157	4	22	17	18
158	2	20	14	12
157	2	19	1	14
158	1	18	17	10
157	1	15	28	-5
158	2	10	17	-1
158	-1	14	-18	8
157	3	18	-25	12
158	5	18	8	6
158	12	24	-12	12
157	20	24	16	11
157	12	17	44	13
158	5	12	23	18
157	9	15	19	18
157	7	19	19	21
157	10	17	37	17
157	6	14	45	17
158	6	16	41	6
158	7	15	16	-9
157	5	13	-19	-21
157	6	22	-27	-23
158	5	20	-8	-20
158	2	12	-23	-7
158	0	16	-26	0
158	1	19	-14	-1
158	3	19	-1	7
158	4	17	22	10
157	3	18	3	17
157	5	19	10	13
157	5	18	14	0
158	-2	15	1	-17
157	0	15	-5	-17
158	5	18	10	4
157	10	19	70	7
157	7	18	68	0
158	5	22	-65	10
157	9	25	-197	14
158	8	24	-88	-9
158	5	24	49	-28
157	7	18	89	-28
157	7	14	139	-22
158	6	18	55	-1
157	10	19	-28	-2
158	5	14	13	-3
158	5	16	1	-4
157	7	19	10	-9
157	5	19	51	-3
157	11	21	56	10
157	7	19	65	9
158	1	22	44	13
157	1	15	29	21
158	2	17	-12	27
157	4	19	-42	29
157	3	18	-35	20
158	1	21	5	17
157	-1	18	26	8
158	1	21	-27	12
157	5	23	5	7
158	8	23	26	-6
158	6	23	0	3
158	3	21	8	-13
158	4	15	-5	-20
157	7	16	-10	-30
158	5	19	-39	-51
157	7	21	-23	-38
158	3	19	50	-6
158	1	12	35	9
158	1	15	-11	17
157	3	20	-14	23
157	3	19	11	17
157	2	18	19	19
157	3	19	-1	13
157	3	17	-3	7
158	3	15	13	-9
158	2	14	21	-16
158	5	21	5	-3
158	10	23	24	-1
158	6	13	45	13
157	4	5	10	19
158	1	13	-7	-5
157	6	17	-6	-4
157	6	14	-25	0
158	5	18	-55	4
157	8	21	-35	15
158	10	22	-11	17
159	8	23	10	11
158	6	19	21	-4
158	5	15	0	-7
158	8	16	-6	-2
158	7	17	24	6
157	10	19	47	7
158	5	20	2	9
158	3	16	-9	-6
157	1	12	-10	-15
157	4	17	-16	-5
158	5	21	5	-6
157	5	19	7	-4
158	5	19	-4	7
158	5	19	2	12
158	6	17	39	11
158	7	19	28	7
157	7	22	19	-2
157	7	21	6	0
157	5	21	-18	-11
158	4	23	-13	-23
158	5	22	-15	-13
158	4	20	-9	-5
158	4	18	-11	2
158	5	19	17	5
158	3	23	52	1
157	3	20	56	2
158	4	17	29	10
158	7	19	10	9
158	5	14	23	7
157	5	17	54	6
158	3	14	96	11
158	1	8	66	19
158	5	12	9	14
158	3	15	-12	7
158	5	17	1	4
158	9	17	1	6
157	7	15	-3	12
158	5	15	16	14
158	5	15	32	6
158	3	17	26	-4
157	4	19	43	-3
158	4	18	55	6
157	6	13	-22	14
157	9	17	-55	-11
158	10	22	-73	-15
157	13	26	-118	5
158	9	19	-34	-2
158	3	17	-2	4
158	1	21	-22	4
157	-1	21	-1	2
157	2	19	15	-5
158	4	13	57	-21
157	3	19	6	-31
157	5	24	24	-29
158	3	21	92	-1
158	1	19	105	-4
158	3	22	9	2
157	8	23	-78	14
158	8	11	-10	8
158	4	17	-24	16
158	6	21	6	4
157	3	19	15	-2
158	4	24	-24	4
158	7	18	19	3
157	1	9	8	4
157	5	11	-5	7
158	6	19	-18	7
158	4	22	-3	10
157	7	25	10	16
158	6	17	-39	18
157	6	13	-47	17
158	8	15	10	2
157	5	22	20	-6
157	2	18	33	-8
157	3	13	58	-24
157	4	14	40	-21
158	5	19	11	-23
157	8	25	-13	-35
158	7	16	-15	-41
157	4	18	-24	-34
158	5	17	-31	-13
157	6	17	-42	0
158	7	25	-29	15
157	3	19	11	21
158	0	21	33	23
157	4	19	44	23
157	4	23	30	14
158	5	21	42	10
158	5	21	53	8
157	8	22	39	2
158	7	17	27	2
157	3	13	23	1
157	4	19	12	0
157	5	24	-31	-5
158	7	21	-33	-14
158	5	17	15	-15
157	3	13	48	4
158	3	13	59	15
157	1	11	53	12
158	1	19	-44	16
158	9	26	-60	17
157	7	22	28	17
157	2	17	0	23
157	3	17	0	16
158	3	19	38	10
158	4	19	35	13
157	5	22	9	9
157	5	17	-10	4
157	5	16	-8	4
157	7	18	8	8
158	4	13	87	11
158	5	15	103	11
158	7	16	-26	19
158	9	16	-84	25
158	8	15	1	17
158	5	21	-2	5
157	7	25	-3	4
157	2	15	17	8
158	3	9	-5	6
157	5	9	56	-9
158	3	11	97	-30
158	5	17	-16	-22
158	9	24	-106	-31
158	5	22	1	-40
157	5	19	-31	-24
158	9	26	-74	-25
157	8	17	5	-18
157	5	13	-12	-16
158	5	16	13	-25
157	5	22	13	-7
157	3	19	35	6
158	3	16	40	0
158	7	19	3	0
158	4	19	15	-11
158	1	19	19	2
157	2	18	23	11
158	2	19	15	4
158	4	20	19	16
158	5	23	6	9
157	3	22	-2	17
157	0	11	-25	28
157	0	8	-48	22
157	4	23	-39	15
157	5	23	-19	18
158	10	20	17	11
158	7	22	19	-2
158	3	17	12	0
158	4	21	26	8
157	3	18	27	12
157	5	17	10	7
157	5	19	19	9
158	8	22	27	1
157	5	23	13	-4
158	5	23	6	2
158	7	23	13	3
158	3	17	22	4
157	5	18	13	4
157	6	15	20	3
158	2	17	25	4
157	2	19	6	4
158	3	18	12	3
158	3	20	24	1
157	7	21	7	-3
157	8	18	-28	0
157	5	20	-21	-9
158	6	18	-23	-17
158	8	17	-32	-29
158	7	19	21	-26
158	5	19	13	-6
158	5	17	-38	4
157	4	17	-30	19
158	6	15	15	12
158	2	15	67	9
158	4	14	54	17
158	8	18	-36	22
158	10	24	-53	19
158	5	17	28	4
157	4	18	69	-9
158	5	18	110	-16
158	4	15	57	-16
158	9	24	10	-14
159	8	24	18	-10
157	8	17	5	-8
157	4	15	56	3
158	4	18	118	6
157	5	10	35	-4
158	4	12	-93	-25
157	4	21	0	-42
158	1	16	-1	-4
158	6	17	-60	3
157	8	17	-43	-10
157	10	21	-52	4
157	9	19	0	7
157	5	18	-16	14
158	5	18	15	11
158	4	17	17	13
158	5	19	1	10
157	2	18	39	7
157	2	15	20	12
158	7	17	8	7
158	11	23	-20	7
158	5	17	-14	14
158	3	16	-16	19
157	0	20	-5	17
157	-2	18	55	7
158	-4	17	105	-4
157	-1	16	50	6
157	7	26	-84	23
157	14	25	-68	13
158	13	20	-36	-1
158	11	22	-36	-14
158	7	22	-1	-22
158	4	22	-30	-19
158	4	22	24	-15
158	3	20	49	0
157	6	16	20	12
158	2	15	5	20
157	3	18	-7	11
158	4	15	26	8
157	1	17	19	10
157	4	13	24	3
158	3	14	1	2
157	7	19	-4	7
158	6	17	25	13
158	10	21	44	7
158	5	21	54	3
157	4	19	15	-3
157	5	18	-26	-2
158	5	17	-37	-1
158	8	15	-12	-7
158	5	21	21	-5
157	5	22	33	-6
158	5	17	16	-4
157	3	16	10	8
157	1	13	10	10
158	3	18	23	5
157	4	21	16	11
157	6	18	-31	14
158	5	17	-13	3
158	5	17	2	-9
157	9	18	4	-16
158	5	18	31	-22
157	5	17	55	-20
158	7	19	86	9
157	5	15	98	16
158	3	14	41	13
158	3	21	-40	20
158	5	24	-30	7
157	1	15	-37	4
158	3	12	-81	2
157	5	17	-29	-13
159	2	21	4	-5
157	7	25	27	-7
158	6	22	46	-10
157	5	18	-81	8
158	8	21	-114	7
157	5	19	0	-12
157	4	15	8	-6
157	5	15	12	-7
157	3	12	48	-14
158	4	11	94	-13
157	5	12	116	-20
157	3	17	36	-21
157	3	17	21	-16
157	1	13	38	-4
158	5	18	56	7
158	7	19	28	19
157	4	18	-14	18
157	3	18	14	15
158	3	21	0	4
159	5	23	-24	-6
158	5	21	-24	-3
157	7	19	-27	-1
157	4	17	-25	0
157	4	15	-9	7
158	9	22	-4	20
157	8	19	5	22
158	7	19	-8	25
158	8	17	-10	20
157	7	15	9	19
157	6	19	5	15
157	6	18	34	13
158	2	19	69	8
158	6	19	33	4
157	10	21	-74	12
158	11	17	-59	0
157	3	13	-15	-22
157	5	23	-30	-33
157	6	21	17	-30
157	7	19	-15	-16
158	8	19	-20	-9
158	3	14	-6	-1
158	4	18	-16	4
157	2	16	0	8
157	3	19	7	4
157	1	20	21	9
157	1	17	32	10
158	4	12	44	4
158	3	15	29	2
158	3	21	39	6
157	8	19	63	15
157	15	23	61	6
158	15	19	15	3
158	5	15	-27	7
158	0	19	18	2
158	0	19	77	3
158	1	18	22	4
158	4	19	-81	7
158	4	18	-54	-7
158	0	17	3	-10
157	0	17	-3	9
158	3	15	4	4
158	4	17	2	4
158	6	21	38	9
158	7	15	43	4
157	2	14	-12	13
157	4	16	-34	2
158	3	19	-40	4
157	2	15	-23	15
158	-1	15	-18	11
158	5	22	-7	6
157	9	19	37	-6
158	5	17	54	-8
158	3	19	18	-16
158	1	17	37	0
158	2	14	83	15
157	3	17	34	13
157	4	15	30	13
158	3	15	60	-1
158	1	15	23	-14
158	3	14	-70	-13
157	10	19	-92	-17
157	14	24	10	-28
158	15	17	-9	-13
157	14	17	-36	-11
158	7	18	36	-18
157	7	17	66	-13
158	5	19	20	-24
157	6	21	-17	-24
158	8	22	19	-20
157	5	23	5	-9
157	4	20	19	1
158	5	20	13	12
158	7	22	20	19
157	5	19	31	26
158	3	17	0	24
158	5	19	13	22
158	5	19	-18	19
157	5	25	-14	8
157	4	23	13	15
157	3	22	48	15
158	5	23	62	15
158	5	13	5	4
158	5	17	-49	-9
157	3	25	-54	-6
157	5	20	-32	-14
158	5	19	-9	-13
158	6	20	51	-6
158	7	19	35	-5
158	5	21	15	1
158	5	18	25	18
157	7	15	-7	18
158	6	16	-12	4
158	7	15	-2	-5
158	6	13	8	-4
158	5	18	6	0
158	5	19	11	4
158	5	21	45	6
157	3	18	89	4
158	3	12	37	-2
158	5	23	-101	7
158	7	22	-90	7
158	4	14	-1	6
158	1	15	-19	16
158	-1	15	2	15
157	2	17	19	13
157	8	19	23	14
158	4	14	41	16
158	4	11	10	17
158	5	14	4	-7
158	8	22	30	-19
157	5	17	15	-6
157	5	24	-75	-9
158	7	25	-33	-11
158	2	13	25	-5
158	3	15	2	-1
158	0	17	28	0
157	4	18	16	-1
158	4	15	30	-1
157	-2	14	29	-1
157	-4	18	22	0
157	-4	17	28	1
158	-4	18	16	2
158	1	22	10	2
157	14	24	35	0
158	18	19	87	-2
158	10	12	34	4
158	7	16	-102	9
158	10	22	-101	11
157	8	15	48	13
158	8	17	31	11
158	8	23	-17	9
158	7	20	2	10
157	8	21	-19	5
159	5	21	-22	-2
158	8	22	-39	6
158	9	21	17	-6
158	8	19	56	-14
158	5	18	50	-3
157	0	14	36	7
157	1	10	14	6
157	3	14	23	-23
157	5	21	-5	-33
157	7	18	-10	-28
158	4	19	9	-28
158	3	19	41	-17
157	2	15	47	-13
158	3	15	10	-6
158	4	17	0	-2
158	3	22	1	10
158	1	21	-32	0
158	2	17	-42	-4
159	3	17	-47	21
158	4	19	-70	21
158	6	21	-2	11
157	8	22	108	7
157	6	21	78	-3
157	5	22	21	4
157	7	17	93	18
158	6	16	69	8
158	7	21	12	-2
157	5	20	16	-9
158	5	17	-23	-14
158	5	17	-11	6
157	4	17	42	7
158	4	14	52	1
158	3	15	-33	12
158	7	22	-83	14
157	8	21	-4	10
157	6	16	40	15
157	6	15	49	19
157	7	16	-39	15
158	11	30	-112	21
157	11	19	33	12
158	1	3	46	8
158	3	14	-73	-4
158	5	18	-56	-6
158	5	17	9	-4
158	3	17	31	-6
157	5	18	16	1
157	7	19	23	-1
157	6	19	10	3
157	8	17	5	3
157	8	21	1	8
157	8	17	-1	11
157	3	17	16	12
157	2	19	22	10
157	3	14	27	5
158	1	15	18	-6
158	3	18	5	-16
159	7	19	-2	-12
157	5	17	0	-10
158	7	19	-4	-6
158	4	17	2	-5
158	2	14	20	-6
158	0	17	21	-10
157	4	17	16	-5
157	5	21	6	1
157	4	17	16	1
158	3	16	10	2
157	4	19	-11	0
157	4	19	-18	3
158	5	18	1	0
158	6	19	11	0
158	5	19	27	4
157	5	20	80	2
157	6	19	74	4
157	7	18	8	9
158	5	23	-77	4
157	12	26	-45	4
157	8	14	28	8
158	3	5	-15	4
157	3	17	-35	-12
158	2	25	-20	-6
158	0	16	14	2
158	-3	16	20	-1
158	2	23	11	3
158	-4	22	17	0
158	-4	20	-2	13
158	0	14	12	15
158	0	15	27	-2
157	3	19	44	-18
157	10	22	20	-10
157	19	25	-2	0
158	18	26	31	-5
159	9	24	23	2
158	5	17	5	11
158	3	11	15	11
158	3	15	5	-4
158	6	17	-28	-3
158	5	18	-50	-1
158	9	19	-26	-2
157	8	18	-3	4
157	7	14	-3	4
158	6	12	5	1
157	4	14	35	-6
158	3	16	98	-6
158	1	18	58	-3
157	1	20	-7	0
158	8	21	26	4
157	20	21	27	9
158	19	15	43	3
159	5	12	24	3
157	6	20	-20	4
157	-3	22	-45	12
157	-4	17	-27	10
158	-11	14	10	9
158	-13	17	-21	4
157	-3	15	16	9
157	5	14	-5	9
158	10	18	-10	-12
157	7	21	5	-8
158	11	23	-6	-2
158	9	23	30	-7
158	8	19	67	-5
157	8	16	61	-4
158	7	17	-58	6
158	13	24	-73	9
158	3	19	21	-3
157	-12	16	-11	3
157	-15	17	-38	-1
158	-4	19	-12	-1
157	4	21	35	3
159	10	13	94	2
158	11	6	68	5
157	17	9	-50	2
157	26	21	-79	0
157	25	21	42	-3
158	15	24	46	-2
158	14	25	33	0
158	15	19	43	3
158	11	19	40	4
158	5	17	47	18
158	1	14	2	27
158	3	11	-12	11
159	2	18	-56	-15
157	0	17	-64	-18
157	5	26	-21	-14
158	3	23	-12	-16
158	1	20	-15	-12
158	-2	17	-8	-2
158	-3	14	6	3
158	0	17	25	-2
158	0	14	28	-6
157	-4	15	22	-2
157	-3	15	22	-1
158	-3	14	24	9
158	-1	16	16	9
158	12	19	4	9
157	14	21	7	3
157	9	24	4	-1
157	1	27	-8	-1
157	11	26	-7	-2
159	19	26	-4	8
157	8	22	10	4
158	5	16	60	4
157	3	14	127	-3
157	-4	9	93	-6
157	-1	14	-70	9
157	12	25	-109	10
158	18	22	-4	3
158	24	21	7	6
158	17	20	19	4
158	9	15	9	10
157	6	17	-9	7
159	-4	19	18	-9
158	-12	21	6	2
158	-25	17	17	6
158	-16	16	3	0
158	6	14	-3	3
158	7	15	8	1
158	-5	12	10	6
158	-25	16	6	2
157	-36	19	-1	4
158	-29	15	12	3
158	-43	16	49	5
158	-29	13	75	2
158	-1	12	-9	2
157	9	20	-86	8
158	17	19	5	-5
157	32	13	41	-11
158	47	19	-28	-12
158	46	15	-1	0
158	67	14	-1	7
158	81	23	-4	1
157	58	24	6	10
158	54	26	14	4
158	44	26	39	3
158	33	23	25	4
157	8	19	26	7
158	-18	16	8	2
158	-27	15	-54	-3
158	-27	17	-59	0
157	5	17	52	-9
158	10	21	17	-8
157	-21	24	-22	-2
157	-47	18	39	13
158	-71	17	-4	15
158	-52	11	6	2
157	-35	10	3	4
158	-18	15	19	9
157	12	14	32	6
158	44	13	40	-1
158	60	15	52	-5
158	64	22	3	-12
158	53	24	-5	-9
158	33	23	-37	-4
158	34	21	-17	-5
158	23	26	-3	-12
157	4	17	-12	-5
158	-17	15	5	0
158	-24	21	5	2
158	-23	15	13	8
157	-31	22	5	8
158	-30	19	9	4
158	-41	18	-5	-2
157	-29	17	-8	2
158	49	19	4	7
158	96	22	10	11
157	64	17	19	10
157	48	19	30	1
158	13	17	56	5
158	-9	19	65	-2
157	-31	17	47	-3
157	-71	15	1	2
158	-35	13	-10	-4
157	-23	6	-32	-7
157	-1	19	-100	8
159	10	28	-59	11
157	-15	21	17	14
157	4	16	32	18
157	7	14	60	9
158	21	10	111	8
157	78	9	125	4
157	69	21	-7	-10
157	-43	34	-90	-12
157	-125	22	-11	2
157	-123	15	-21	5
157	-91	21	-8	2
158	-51	17	22	0
158	64	13	-1	-8
158	196	16	26	-8
157	166	22	19	3
157	155	19	16	6
157	110	12	-8	7
159	8	9	35	-5
158	-77	14	87	-10
157	-145	14	22	3
157	-53	12	-67	2
157	11	13	-41	0
158	-8	10	15	-5
157	3	16	-24	0
157	3	29	2	-1
157	-3	35	-22	10
158	-9	28	-23	14
158	-5	20	-6	6
157	11	22	-22	-11
158	18	19	4	-7
158	23	20	2	10
158	17	18	22	4
157	9	22	21	-3
158	-3	21	10	-5
157	-22	18	-7	0
158	-28	17	2	-5
157	-7	15	-8	-7
157	-11	22	-23	3
158	-17	19	17	12
157	-2	14	20	7
157	10	3	28	8
158	20	2	48	6
158	8	11	51	7
157	-5	13	25	5
158	-11	14	19	-1
157	-4	12	56	-4
158	15	16	25	-3
158	20	21	-71	9
157	35	23	-19	4
158	51	13	77	-2
157	53	9	48	-4
158	63	27	10	-1
158	124	35	14	14
158	169	22	22	10
158	82	16	-70	-5
157	13	22	-60	-17
158	-32	23	10	-13
158	-133	30	-9	-6
157	-158	47	40	-7
158	-151	67	84	2
157	-79	56	34	9
157	-14	40	-89	18
158	-34	38	-27	16
157	-33	27	81	13
157	-32	28	5	6
158	-26	23	37	-5
157	-24	12	37	-10
157	-32	9	-74	-1
157	-5	-3	-91	8
157	61	-22	-17	-4
158	112	-17	-20	0
158	74	-1	-17	2
158	66	-9	20	-1
158	79	-20	17	2
158	67	-23	35	0
157	49	22	17	-6
158	-30	62	21	-6
158	10	49	15	-1
158	18	42	12	8
158	-42	19	8	9
159	12	23	6	-4
158	1	29	34	0
157	-5	10	42	3
158	35	16	41	-1
157	17	19	14	-2
158	11	23	8	-4
157	29	19	1	-1
158	27	16	0	4
157	5	14	11	10
157	-7	10	12	0
157	-14	4	34	0
157	-18	5	49	2
158	-16	10	30	1
157	-22	-1	-26	15
157	-26	-8	-25	15
158	-25	-6	-12	4
157	-16	34	-11	4
158	-2	80	10	-3
157	9	52	18	-2
158	23	3	69	1
157	23	17	84	-5
158	27	8	-36	1
157	37	15	-151	8
157	40	26	-34	-3
158	22	11	25	0
157	0	23	-25	-5
158	-8	15	5	-14
157	-9	24	12	0
157	-12	20	90	1
158	-16	15	37	12
157	-1	21	-78	19
158	29	23	-17	9
157	29	14	57	0
158	14	14	31	9
158	15	19	21	7
158	3	17	14	-2
157	-6	15	17	-4
157	-26	3	43	-6
158	-48	7	73	-11
158	-41	11	63	-10
158	-28	17	-93	0
159	-20	17	-97	-5
158	-10	14	-3	-2
158	8	14	-3	2
158	16	7	26	0
157	41	2	2	3
157	62	10	-24	3
157	61	17	5	13
157	62	18	10	8
157	112	30	6	-13
157	162	32	4	-7
157	92	31	6	0
158	42	37	0	1
157	33	33	-3	4
158	-51	28	14	0
157	-140	23	16	-6
158	-228	11	6	-5
159	-175	8	13	-2
158	-107	4	32	-2
157	-136	4	33	11
157	-10	25	19	18
158	45	44	36	15
157	28	44	33	8
157	58	27	36	4
157	47	19	21	0
158	42	24	-49	-4
157	27	25	-58	-2
158	38	19	-3	-1
157	33	17	34	-1
158	-48	11	74	-2
158	-71	12	48	-4
157	10	19	-81	0
158	30	16	-89	3
158	38	19	-18	0
158	74	13	9	10
157	102	15	25	7
157	135	19	13	-3
158	102	14	10	3
157	54	21	12	-6
158	-2	31	16	-12
157	-35	38	12	2
158	-56	28	8	8
157	-26	10	25	-1
157	-3	6	79	-4
157	1	0	71	-7
157	30	1	-64	-5
158	35	2	-98	-3
157	52	-2	16	-2
158	42	-3	12	11
158	28	6	-3	11
157	22	17	26	-1
158	-17	18	31	4
158	-63	17	80	2
158	-100	25	20	2
158	-112	39	-63	8
157	-67	39	2	7
158	-14	8	59	1
157	5	-8	13	10
157	27	-1	8	14
157	35	14	-9	-6
157	39	67	-12	-11
157	39	66	17	6
158	27	10	27	-4
157	23	32	28	-19
158	38	50	-31	-5
158	52	36	-20	6
159	-104	24	-1	8
158	-192	3	-19	9
157	-33	6	-10	6
158	-55	12	36	2
157	-83	14	70	2
157	-23	9	4	12
158	50	-1	-38	7
157	167	-11	-33	-4
157	149	-7	-3	1
157	181	-3	2	0
157	94	2	-12	2
158	-7	17	10	3
157	8	23	16	0
157	-2	19	23	-1
157	-10	-8	26	0
157	-17	-37	37	-4
158	-2	-26	32	-9
157	-17	-3	30	1
157	-26	29	34	2
158	-57	71	45	4
157	-54	91	116	8
158	-38	104	82	10
157	-38	108	-82	26
158	-4	60	-150	14
157	27	10	-44	-20
158	54	23	5	-20
158	37	22	41	-3
158	41	14	40	-9
158	18	29	-93	-1
158	-5	26	-25	0
158	5	19	88	-16
158	14	12	-37	4
158	13	9	-106	11
158	-1	1	-2	1
157	8	-2	17	-1
158	-23	0	1	-2
157	-39	3	12	7
158	-36	3	4	10
157	-28	4	18	7
157	-16	7	15	10
158	15	8	17	9
157	54	9	22	2
157	55	8	43	-1
157	63	9	51	-4
158	78	13	20	-4
157	62	18	16	-3
157	1	19	9	10
157	-22	11	10	14
158	-21	1	12	15
158	-32	4	-2	6
157	-31	9	5	-6
158	62	15	35	-5
158	140	14	29	-1
158	-13	11	0	4
158	-66	8	18	-7
159	-34	12	24	-12
158	-125	29	-6	-6
157	-175	26	2	-10
157	-111	21	34	-6
158	52	23	38	2
157	24	21	18	0
157	-18	30	-8	6
157	10	26	-38	12
157	-44	27	-29	8
158	-5	29	-11	6
157	42	25	-16	13
158	110	24	-6	6
157	133	17	13	-1
158	109	18	17	3
157	68	15	13	4
158	20	11	6	7
157	-21	-7	50	10
158	-27	-14	99	3
157	-19	0	69	-18
158	-40	15	-52	-10
158	4	18	-114	1
157	44	38	-20	-10
158	33	89	-3	-5
158	7	64	5	-1
158	-18	19	54	-1
157	-44	19	87	7
157	-28	-4	93	4
157	48	9	-74	7
157	102	11	-123	14
158	99	3	-3	-3
157	132	36	2	-2
157	125	51	-7	-1
157	32	40	12	-4
158	-23	8	12	-1
157	-89	-9	40	-1
158	-111	2	64	9
157	-135	27	65	2
158	-112	56	-53	2
157	-23	41	-104	0
158	-25	-5	13	-4
157	3	-32	42	-2
158	3	-15	58	-2
158	-22	15	47	-2
158	-30	15	-40	-6
158	9	37	-54	2
158	85	64	-12	9
157	32	72	16	15
158	-16	32	5	9
158	-78	-5	13	-9
157	-142	9	8	-1
158	-101	19	15	8
158	-21	43	17	9
158	73	26	12	9
157	86	9	19	2
158	119	10	13	1
157	151	10	18	-1
158	114	23	18	-1
157	68	12	18	1
157	13	19	8	-6
158	0	10	0	-1
157	-2	7	10	-2
157	-1	8	22	0
158	-6	5	27	10
158	-6	8	12	2
158	-4	8	-13	-3
159	-4	12	-5	1
158	-14	12	6	1
158	-68	15	0	-4
157	-136	12	4	2
158	-119	14	3	1
158	-79	14	16	4
157	-50	15	28	9
158	24	16	50	8
157	62	9	56	17
157	148	12	-34	14
158	166	25	-85	-4
157	115	25	-35	-12
157	101	24	-12	-1
158	48	25	24	0
157	40	17	80	4
157	36	14	85	-3
159	19	8	-22	-7
157	4	22	-91	-6
157	-9	28	14	-6
158	-6	23	-6	9
158	-27	25	-5	-1
158	-13	23	26	-17
158	-4	21	-14	-8
157	-28	7	25	6
157	-25	3	37	4
158	-48	9	89	1
157	-43	12	27	0
158	12	13	-75	0
157	49	19	-33	0
158	1	27	-19	2
157	-12	29	19	5
157	-9	27	52	5
157	-41	25	-13	16
158	-1	19	-21	12
157	-10	14	-8	16
158	-20	24	-17	-5
158	-20	25	-10	-22
158	-38	25	-6	-5
157	-18	25	11	4
157	1	19	25	6
157	21	17	31	0
157	44	17	39	7
157	88	18	44	10
157	133	13	37	6
158	154	-3	28	2
157	50	-15	17	-1
158	-114	-9	10	1
157	-194	-5	12	2
158	-219	-3	12	-1
158	-192	0	19	3
157	-145	7	18	3
157	9	64	4	4
158	127	121	-12	6
157	106	72	0	2
157	110	24	-2	-4
158	40	25	-31	-2
158	10	21	-30	4
158	5	32	7	2
157	2	23	52	-4
158	-5	26	37	0
158	-74	13	-53	8
158	-127	9	-79	9
158	-110	10	9	-1
158	-43	0	32	-4
158	-12	10	78	7
157	79	5	145	11
157	159	11	22	9
158	251	18	-145	-1
158	265	27	-71	-26
157	180	16	36	-18
158	120	10	-6	1
157	29	9	20	-6
158	27	14	1	2
158	16	18	0	-9
158	8	7	15	-1
158	14	-19	5	3
159	-41	-35	25	-2
158	-45	-6	2	6
157	-71	17	21	-4
158	-95	38	28	8
158	-64	54	60	6
158	5	104	85	7
157	32	112	-2	12
157	-25	61	-93	6
157	-33	36	-21	2
158	-51	-12	40	-3
157	-75	-22	8	2
158	-80	6	10	0
158	-48	5	-18	-1
157	40	7	22	-9
157	94	11	7	7
157	115	3	-31	21
158	62	10	8	7
157	-1	11	18	-2
157	-14	6	13	-5
157	-78	9	7	-4
158	-121	9	13	1
157	-95	17	12	3
157	4	22	8	3
158	30	18	-8	0
157	14	8	-18	2
158	7	11	-17	7
157	-34	11	0	7
157	-9	5	6	5
158	-18	11	7	-3
157	-19	15	14	-4
157	30	15	3	0
158	20	19	9	0
157	8	24	16	7
158	19	21	19	4
157	46	19	21	-1
158	77	21	18	-5
157	66	17	15	-7
158	46	11	18	-5
157	28	9	32	5
158	28	6	40	6
158	38	2	31	0
157	17	4	-4	-3
158	-2	7	-33	-6
157	-29	18	-22	5
158	-42	45	-13	2
157	-48	64	-5	-4
158	-51	45	21	-8
158	-47	27	63	-4
157	-84	22	130	1
158	-99	19	64	-2
158	-13	14	-129	7
157	78	22	-135	2
158	103	18	-7	-4
157	140	23	-10	8
157	150	31	9	4
157	167	33	45	8
157	137	22	85	16
158	56	13	55	4
157	15	32	-88	-11
158	-26	32	-44	-7
157	-12	23	63	-9
158	-17	23	103	-8
157	-21	11	82	0
158	11	5	-106	1
158	-26	13	-135	-1
158	-28	10	15	2
157	-21	14	4	12
157	-72	11	12	7
158	-105	7	29	2
157	-67	10	6	1
158	-13	17	21	2
158	13	17	6	0
158	43	8	15	-3
157	-20	8	-3	3
157	-52	7	-1	-2
157	-48	1	1	6
157	-73	3	3	8
158	-68	19	6	11
157	-77	64	0	6
157	-50	70	23	1
158	-78	14	38	3
157	8	16	43	0
158	101	23	20	6
158	115	10	15	12
157	143	14	13	-1
158	108	7	8	-7
158	105	10	3	4
158	47	4	-10	-1
158	-5	12	8	-7
157	-36	17	22	-6
158	-30	19	33	-2
158	-36	25	21	3
157	-61	33	-29	4
157	-40	40	-23	-2
158	-30	19	29	-7
157	-9	10	29	-3
158	2	17	37	-4
157	-3	22	24	0
158	-29	15	5	4
157	-53	18	8	3
158	-83	22	0	5
157	-102	19	6	7
157	9	19	1	13
158	121	5	15	15
157	208	-4	15	20
157	282	-9	5	7
158	272	-16	-9	-9
157	165	-25	-27	-10
158	-22	-24	1	-6
158	-135	12	43	-2
159	-148	32	97	-4
157	-123	28	56	2
158	-59	41	-71	4
158	19	56	-93	3
158	8	69	-75	-9
157	4	82	-39	-15
158	-6	58	3	-1
158	-28	15	-8	-1
157	22	-15	10	1
158	38	-34	7	4
158	7	-19	15	7
157	-27	23	58	7
158	1	41	113	-2
158	11	67	93	2
157	-51	120	-31	4
157	-91	87	-133	7
157	-56	19	-58	6
157	-5	13	34	0
157	51	-2	1	-2
157	72	-10	18	2
157	61	-13	-4	2
158	78	-12	-12	-9
157	63	-15	8	-2
157	19	-10	10	7
157	-80	47	36	6
158	-106	41	30	9
157	-17	-9	14	12
159	4	9	0	12
158	32	11	12	8
158	12	6	4	-2
158	-80	13	19	-10
157	-82	12	23	-4
158	0	17	5	-5
157	45	6	18	-1
157	54	3	12	5
158	96	3	15	2
158	133	9	18	4
158	136	5	21	1
158	77	10	8	-2
157	14	28	-13	-2
157	-40	27	9	0
157	-55	25	24	-4
158	-35	25	-6	6
158	-22	18	-9	10
158	21	17	16	-5
157	48	19	1	-10
158	16	21	6	0
157	-19	15	23	-1
157	-57	11	24	7
158	-101	16	8	8
157	-112	17	-2	10
157	-57	18	37	7
158	-6	19	41	2
157	25	17	2	6
157	108	19	-54	7
158	85	23	-38	-1
158	30	21	15	-5
157	28	24	-5	1
158	-36	24	15	0
157	-94	15	36	2
157	-110	11	73	-7
157	-39	3	29	-3
158	-33	11	-108	12
157	-47	27	-54	2
157	-2	21	39	-3
158	20	23	4	-1
158	79	22	27	-1
157	101	23	30	-2
158	137	31	5	1
157	120	31	22	5
158	45	25	15	13
157	13	19	33	18
157	-17	22	46	9
158	-24	6	27	-9
158	-25	-11	-27	-18
157	-35	-2	-52	-18
157	-43	15	-5	-14
157	-15	31	45	-8
158	-18	41	-15	3
157	-47	40	-85	10
159	-65	18	-6	10
158	-46	11	25	6
157	-75	28	6	4
158	-115	12	29	7
158	4	9	59	-1
158	102	23	84	-5
157	199	24	-22	4
157	278	34	-88	7
158	247	34	0	7
158	254	39	15	3
157	195	19	6	1
157	27	-17	41	2
157	-118	-17	20	0
157	-154	13	26	3
157	-148	27	15	7
158	-202	22	5	-7
158	-161	74	4	-11
157	-96	114	2	7
157	-107	52	25	0
157	-73	-1	-8	-4
157	-55	-13	-15	3
157	-75	-20	3	-4
157	-54	-15	2	-6
158	28	14	4	-11
158	106	29	11	-7
158	121	27	17	-2
158	132	-3	6	3
158	160	-8	9	7
158	71	0	29	12
157	44	-6	34	12
157	70	0	17	-6
158	-16	6	-8	3
157	-19	21	-1	-1
158	-16	23	-1	2
158	-36	31	-27	4
158	-36	38	-12	2
158	-39	28	7	6
158	-6	31	18	3
157	5	25	42	12
157	0	19	38	5
157	-18	15	-11	4
158	-26	15	-27	7
158	-6	19	15	-6
157	15	12	7	-4
158	37	6	9	-2
157	45	2	61	2
158	53	4	93	4
158	31	7	9	13
157	-4	8	-117	26
158	-24	17	-41	11
157	-20	25	12	1
157	-26	22	0	-7
158	-34	14	7	-17
158	-20	18	-29	-7
157	-6	19	6	-2
158	3	9	8	-2
158	-1	1	6	4
158	-17	4	15	-2
158	-25	24	2	-9
158	1	52	2	-12
158	17	52	8	-9
158	31	25	22	-6
158	52	17	17	-5
157	87	24	23	3
158	107	24	10	7
158	82	29	13	9
158	33	33	29	12
157	-84	26	49	15
158	-110	30	115	5
157	-10	27	102	0
158	5	24	-81	14
158	-38	30	-157	14
158	-40	22	1	1
157	5	13	23	-3
157	12	13	-4	-9
158	-4	13	5	-6
157	-12	9	-8	0
158	-27	-1	27	0
157	-20	7	7	0
158	-72	10	9	-13
158	-71	9	-1	2
158	26	5	-7	8
158	71	-6	13	4
158	141	-2	10	11
157	130	-1	16	3
157	92	1	-5	-6
158	135	5	2	-4
158	86	11	20	0
157	4	13	22	-3
158	-46	21	21	1
158	-85	41	47	2
157	-75	79	52	6
159	-61	85	-5	8
157	-33	34	-58	-5
158	-25	32	-37	-6
158	-49	38	2	-3
158	-42	22	4	-5
157	-22	19	9	-1
158	11	0	4	0
157	52	10	13	-2
158	114	9	13	-5
157	139	-10	13	2
158	74	-58	15	9
157	25	-88	7	10
157	-114	-34	27	15
157	-255	-4	67	2
158	-218	23	108	-1
157	-35	54	28	4
157	129	87	-95	18
157	136	94	-44	7
158	146	59	-9	-12
158	99	51	-22	-12
157	91	39	9	-5
158	57	23	-47	10
158	-10	34	-35	-2
159	14	37	16	-2
157	-18	10	15	3
158	-45	2	19	3
157	-82	19	16	-3
158	-100	14	9	1
158	-68	23	6	4
157	-60	31	10	1
157	-44	30	10	4
157	8	27	10	0
158	60	29	15	6
158	111	28	17	1
157	158	25	23	-2
157	92	17	19	6
157	4	-2	22	10
157	-60	8	46	0
157	-70	-7	77	-3
158	-19	-17	6	4
158	8	-1	-83	7
157	-6	1	-13	6
158	-14	6	57	4
157	-3	24	60	2
157	21	29	-23	-3
158	142	31	-104	0
158	151	22	0	-1
158	22	-4	23	2
158	-34	-16	5	2
157	-117	-5	36	3
157	-222	33	20	-1
158	-237	73	19	7
157	-138	40	8	5
157	-89	-11	7	-2
158	-73	19	-24	9
157	36	15	-27	10
157	109	19	-24	-4
158	197	17	-10	-17
157	229	-2	24	-1
158	236	13	32	4
157	213	8	34	-11
157	80	-5	14	-10
157	-4	-4	9	4
157	-52	26	3	9
158	-38	41	10	0
158	-40	17	6	8
157	-33	-35	15	7
157	-46	-29	41	2
158	-82	25	34	-2
157	-43	44	6	7
157	-59	54	-5	5
157	-34	112	38	-3
157	2	104	74	-12
157	-11	1	7	-9
158	20	12	-106	10
157	55	9	-54	-6
158	12	3	5	0
157	-36	17	-36	6
158	-9	8	4	-1
157	36	17	-2	2
157	75	9	8	9
158	70	14	22	8
158	53	8	17	4
159	10	9	36	6
157	-36	11	32	4
157	24	17	42	12
158	7	19	23	10
158	-42	14	9	3
158	-33	19	-11	1
158	-55	15	4	-1
158	-40	11	8	-11
157	-31	6	-31	-12
158	-8	12	-22	-1
158	79	7	15	6
158	146	7	13	10
158	102	12	15	-1
158	16	15	57	-2
158	-40	19	59	-11
158	-133	25	-25	-12
158	-163	36	-71	7
158	-88	43	46	-1
157	12	29	73	0
158	-3	19	-33	4
157	2	35	-87	4
157	23	35	-8	2
157	-12	32	44	9
157	-20	35	20	14
158	-14	25	52	2
158	35	11	13	-2
157	26	8	-30	-6
158	-7	4	-36	-1
157	7	-3	8	0
158	48	2	9	-2
158	63	2	-2	-1
157	82	12	16	2
157	96	33	2	4
157	99	40	21	0
158	80	37	24	0
157	33	34	43	-4
158	-31	38	10	-1
158	-94	24	3	6
157	-23	10	24	10
158	-1	6	3	1
157	12	7	-1	-4
158	71	10	-4	11
158	71	16	10	9
157	59	19	23	10
158	45	16	7	8
157	44	15	-7	-1
158	-25	11	-9	-4
158	-66	11	-8	-9
157	-24	9	2	-5
157	41	0	4	-9
158	90	-7	12	-1
157	33	-7	21	13
158	-63	11	20	14
158	-128	69	21	11
158	-96	51	21	4
158	-36	-8	17	0
158	-58	16	-11	0
157	-13	18	-22	-7
157	11	12	23	-7
158	-60	-3	88	1
157	-71	1	109	6
159	10	30	13	18
157	89	41	-89	16
158	17	43	-31	-4
158	-96	31	-31	-15
158	-184	38	-28	-14
157	-169	24	12	-6
157	-81	31	-14	-1
157	-11	30	4	-8
158	97	14	-26	-4
158	175	5	-15	2
158	225	-3	1	1
158	210	0	-5	1
158	112	-8	15	6
158	-23	9	22	1
158	-79	11	41	1
156	-18	34	23	-2
158	28	49	12	-7
157	92	36	16	4
157	118	46	50	-1
157	107	32	74	10
157	86	1	-3	12
158	34	8	-82	4
157	-23	13	19	2
158	-31	-21	92	-8
157	-1	-35	-38	0
158	-28	-12	-104	4
157	-32	19	-27	-4
158	-29	25	32	-1
158	-34	39	45	3
157	-37	64	60	-1
157	-49	39	-39	7
157	-25	8	-48	12
158	-10	29	27	6
157	-9	34	0	7
159	-6	29	20	7
157	-31	32	20	2
158	-35	32	14	0
158	5	30	16	0
157	13	20	6	0
157	26	17	16	7
158	58	13	12	4
158	21	13	16	-5
157	9	11	-10	2
157	0	9	-7	7
157	-65	15	23	-7
158	-87	15	17	-4
157	-38	6	15	9
158	1	8	-13	4
158	-39	8	-13	-2
158	-38	2	21	-6
157	-13	-4	29	-2
158	49	-7	32	8
157	129	-3	4	17
158	95	-6	4	18
157	37	-4	50	13
158	7	16	59	-12
157	-45	84	30	-34
158	-143	119	-64	-15
157	-221	42	-121	-5
158	-180	16	-16	-7
157	-122	33	17	-1
157	-12	26	-8	6
157	119	22	24	11
157	172	12	10	11
157	205	-3	25	7
158	151	-19	21	3
157	136	-13	9	3
158	104	-1	-2	6
158	43	8	-13	4
158	59	18	0	4
157	89	34	10	2
158	126	39	29	-5
158	92	41	41	-2
157	33	42	41	-8
158	-31	27	-1	2
158	-36	19	-12	8
158	-51	-1	25	-1
157	-87	-9	19	0
158	-98	4	12	-1
158	-102	19	9	-2
158	-14	48	13	-1
158	17	58	24	2
157	-13	25	16	1
158	8	1	6	7
157	38	15	2	7
157	24	6	15	-2
159	18	8	48	2
158	2	19	62	1
157	-57	11	-21	5
158	-115	13	-94	12
158	-67	8	4	3
158	41	12	56	4
158	49	9	70	4
158	99	1	36	0
157	59	10	-110	0
157	-12	8	-55	-16
157	5	2	6	-19
157	-94	9	-9	-3
157	-189	7	6	0
157	-149	2	-10	0
158	-37	-4	4	4
157	-55	5	5	2
158	-103	36	14	7
158	-68	47	12	4
157	-1	38	23	3
158	47	66	32	9
158	107	84	23	10
158	196	41	15	-10
157	215	47	-2	3
158	194	34	10	35
158	115	2	1	18
157	64	12	-33	-9
158	28	9	-21	-28
158	13	15	17	-13
158	11	9	24	-12
157	-44	9	2	-7
157	-83	12	-14	1
157	-97	42	23	-3
157	-46	73	58	3
157	-24	22	85	2
158	14	-17	33	10
157	60	5	-107	9
157	73	6	-89	2
158	64	5	19	4
157	43	5	10	9
157	34	8	11	6
158	-6	24	21	6
157	7	31	-3	4
157	-1	8	8	1
157	-32	-16	18	3
158	-28	7	32	0
157	-8	18	19	2
157	1	15	14	0
158	0	5	18	3
158	26	-3	10	10
158	6	12	21	8
158	-6	14	17	4
158	-9	-4	18	-3
158	-63	4	9	-2
157	-126	27	13	-4
157	-60	28	9	1
158	-17	38	3	7
157	-75	24	12	6
157	-81	15	4	12
158	-84	32	34	2
157	-19	37	86	-5
157	20	32	73	-3
158	51	21	-44	-2
158	93	19	-116	8
158	106	23	-45	3
157	119	10	2	-2
157	69	14	-4	-3
157	33	19	0	-4
158	2	18	11	-1
158	-8	22	8	4
158	-11	20	15	4
158	-25	22	14	-3
158	-25	24	3	-1
158	-18	19	19	0
157	-52	13	45	-2
157	-93	14	34	0
158	-60	14	-33	7
157	-80	12	-42	8
157	-92	4	22	8
158	-36	-2	38	24
158	70	6	61	22
158	177	14	37	-5
157	190	19	-35	-30
158	156	22	-51	-31
158	133	35	-32	-13
158	167	44	4	-7
157	135	48	13	-2
158	42	15	-5	0
158	21	-6	-12	-2
158	4	10	47	0
158	-33	18	111	7
157	-34	41	58	7
158	-35	38	-70	7
158	-49	24	-51	8
158	-37	24	39	2
158	-12	18	0	0
157	15	15	6	0
158	-8	31	3	-1
157	-25	30	-4	-1
158	-28	17	7	4
157	-69	15	-28	1
157	-119	7	6	1
158	-78	10	13	2
157	41	14	15	6
157	45	4	16	11
157	37	-9	5	12
158	10	-23	16	10
157	-43	-21	13	0
158	-34	-10	22	8
158	47	1	19	9
157	99	-4	15	-1
157	-50	-15	3	-2
158	-222	27	-3	0
157	-274	82	9	1
159	-232	62	6	6
158	-194	73	3	6
157	-15	94	6	1
158	190	94	9	-6
158	254	69	8	-7
158	334	10	6	-2
157	251	14	6	1
157	117	17	5	-1
159	19	8	8	-2
157	-31	5	5	0
158	-45	0	6	-4
157	-28	-18	8	0
158	27	-13	10	0
157	20	28	14	1
158	14	5	8	3
157	-35	-8	16	0
158	-59	2	50	0
158	-43	-1	81	-4
157	-32	1	32	2
158	1	-17	-88	4
158	29	-26	-73	0
158	58	-15	17	-1
158	114	19	-4	3
157	152	43	4	-1
158	78	31	32	-2
158	-18	22	54	4
158	-75	46	13	0
158	-105	56	-75	2
157	-115	42	-10	0
158	-61	42	17	14
157	22	29	-9	23
158	29	19	3	6
157	40	20	-2	4
157	31	16	30	2
157	27	16	55	-9
158	16	5	50	-8
157	-16	-27	5	-9
157	-12	-37	-31	4
158	-18	-9	-16	4
157	4	-31	6	-6
158	24	-36	8	-2
157	52	5	-21	-1
158	89	49	-19	0
157	36	136	-12	0
158	-36	120	-1	-2
157	-58	57	7	-6
158	-86	49	1	-16
157	-107	42	-8	0
158	-93	41	20	5
157	-81	14	87	-2
157	-96	4	91	11
158	-14	5	-9	10
157	56	0	-109	12
157	57	-6	-10	3
158	96	-23	33	2
158	117	-17	-30	6
158	120	-7	14	4
157	50	19	2	11
157	-13	53	19	4
157	-20	63	14	-3
158	-2	28	-8	-8
158	-41	29	13	0
157	-77	31	5	3
158	-33	14	21	2
158	-28	26	37	0
157	-13	11	46	0
157	8	-1	27	1
158	38	1	21	1
158	66	9	19	1
157	89	8	12	1
158	63	8	12	2
157	-1	10	14	6
158	27	10	55	3
157	36	5	73	2
158	-8	2	-22	8
158	-4	10	-100	9
157	68	25	-8	0
158	90	35	7	-3
157	41	31	-19	0
158	31	26	11	-6
158	7	-14	-7	-4
157	-32	-52	3	0
158	-49	-23	-3	0
158	-20	-15	23	7
158	11	-22	79	1
158	-27	10	103	-10
157	-91	67	14	-7
158	-70	111	-125	0
158	23	75	-56	-6
158	28	55	8	0
157	30	57	-12	-2
159	44	53	8	2
158	36	30	-3	6
157	-1	19	16	8
157	-45	33	16	7
158	-62	21	11	2
158	-102	18	13	10
158	-88	8	-2	9
158	-56	2	18	2
157	30	-3	38	7
158	99	23	37	9
158	77	62	-11	-2
158	71	42	-43	0
158	83	-5	-7	0
158	94	-12	27	-12
158	31	-3	37	-11
157	-17	3	37	-1
158	-19	3	-9	2
158	-78	-17	-30	1
158	-111	-23	58	-3
158	1	1	96	0
158	89	14	-19	5
157	102	13	-107	9
157	86	22	-3	9
158	16	23	45	4
158	-12	21	-5	-4
157	-31	14	9	-5
157	-21	43	-7	9
158	-20	90	21	-7
158	-26	44	8	6
157	-22	-8	-20	9
158	-38	17	-7	-4
157	-27	19	13	-1
157	-23	29	25	2
158	10	27	13	7
157	12	11	7	-3
157	14	14	-4	2
158	43	9	14	3
158	35	10	6	1
158	34	10	10	4
158	16	13	14	7
157	-23	-1	17	10
158	-45	11	19	1
157	-25	22	-3	-6
158	-6	8	16	-4
158	23	9	13	-1
157	86	0	14	-4
158	111	0	14	-4
158	92	16	4	4
157	-13	15	17	1
157	-71	9	46	-2
157	-83	-4	75	0
158	-215	-11	-6	0
158	-194	15	-101	3
158	-25	48	-32	-1
158	26	47	17	-3
158	92	34	-8	1
158	133	40	21	0
158	122	52	17	6
157	106	47	37	7
157	17	32	58	10
157	-25	23	55	12
157	-15	32	3	10
157	-10	31	-73	16
158	-48	16	-27	12
158	6	-3	5	4
157	63	-9	-11	0
158	57	-5	9	-15
157	42	-2	-7	-7
157	30	16	-32	-2
158	46	18	-14	-2
158	15	9	-3	0
157	30	-17	-8	-4
158	-24	-21	9	-5
158	-105	13	17	4
157	-98	35	10	18
158	-53	40	16	7
158	-21	59	26	-10
157	-11	90	48	-19
158	43	29	46	-9
157	81	-47	16	-4
158	125	-27	28	-3
157	121	-8	63	-4
158	94	11	69	-12
157	58	13	-15	16
157	5	7	-112	25
158	-61	65	7	3
157	-116	96	23	-8
157	-44	56	-73	2
158	3	52	5	3
157	-31	43	-2	0
158	-14	30	-4	0
157	-34	74	19	4
157	-102	56	12	9
157	-172	-7	25	6
158	-157	-10	10	7
157	-100	-3	32	4
158	-65	-5	21	2
157	45	-2	5	3
157	102	-15	-3	2
157	180	-18	18	-6
158	234	-17	16	-1
157	197	-31	3	6
158	135	-39	12	-2
157	55	-6	4	-3
158	37	42	23	-2
157	-32	73	36	0
158	-80	72	63	1
157	-50	27	60	1
157	0	29	-50	3
158	13	50	-106	4
158	-1	30	-8	4
158	7	10	27	8
158	22	7	16	6
157	44	26	42	2
157	28	34	5	7
157	13	9	-12	0
158	42	-5	-30	1
157	62	-9	-5	-1
157	-6	-6	26	1
157	-57	-2	48	6
157	-84	7	4	4
158	-129	31	-75	7
157	-120	21	0	-2
157	-64	15	21	-3
158	-35	-6	8	2
158	-45	-22	15	0
157	-25	11	-7	1
158	1	31	10	-5
157	33	44	10	-1
158	49	46	21	-2
157	53	60	13	-9
157	65	27	4	-2
157	26	-17	9	-7
158	-75	8	20	-3
158	-131	14	38	4
157	-88	6	19	4
157	-65	6	-12	8
158	7	19	-15	3
158	121	24	4	0
158	172	31	7	-1
157	178	76	21	0
157	180	104	23	-3
158	122	46	-1	-1
157	13	-1	-4	3
158	-44	3	-3	1
157	-77	-4	-2	10
157	-70	2	8	15
158	-56	11	32	22
157	27	8	36	10
157	87	6	5	-7
157	48	13	-20	5
157	24	20	5	-6
158	8	27	18	-13
157	-9	21	43	-2
158	-33	14	98	-1
158	-5	11	28	1
158	-20	15	-114	9
157	-6	5	-86	9
157	5	-27	7	-1
158	-15	-13	-17	-9
158	0	-6	-1	-2
158	-12	-11	7	2
158	1	3	10	-2
158	0	8	28	4
158	-5	32	13	-6
157	-39	70	5	-6
157	-63	91	0	-7
158	-35	63	63	-10
157	-9	36	99	-4
158	7	35	57	5
158	14	32	-52	10
158	33	22	-89	7
158	42	19	11	7
158	44	16	27	4
157	42	16	19	9
158	52	7	5	10
158	84	-6	-28	12
157	71	-9	2	3
158	27	-7	2	3
158	-34	5	1	6
157	-121	12	7	2
158	-139	17	-5	6
158	-66	24	5	7
158	3	29	17	3
157	-69	34	19	-1
158	-162	30	26	-3
158	-113	19	39	2
158	9	14	71	4
157	106	7	93	2
157	100	7	4	9
158	107	6	-103	-1
159	97	-1	-49	-10
158	96	-11	10	-1
157	66	-2	-10	0
158	27	24	11	0
157	27	37	10	4
157	30	49	27	5
158	88	36	15	-5
158	80	43	-21	-7
158	14	-2	-7	-6
158	-53	-39	-7	0
158	-89	3	3	10
158	-56	17	5	2
157	-32	93	9	9
158	-25	132	12	6
157	28	63	6	0
158	106	15	8	-8
159	150	4	12	-8
157	117	14	17	-2
158	19	17	22	-4
157	-60	17	22	7
158	-122	52	11	2
158	-135	5	-1	8
158	-87	-31	-12	6
157	-2	-12	-1	2
157	8	-31	19	2
158	-5	15	36	-1
157	5	38	35	10
157	-17	26	41	7
158	-11	41	43	-1
158	-36	24	-61	1
157	-111	5	-120	8
157	-114	24	12	-5
157	-10	50	19	-8
157	68	30	-1	-7
158	122	-19	33	-10
157	121	-23	19	-2
158	142	-1	50	-2
158	121	4	-6	5
158	-35	14	-17	3
157	-47	31	45	4
158	34	57	63	6
157	43	49	38	3
157	33	30	-57	9
157	11	22	-42	-7
157	-66	-4	38	-10
158	-59	-3	-7	8
157	36	-7	-13	-2
158	13	4	-13	-8
157	-1	17	-26	-6
158	13	13	6	0
158	-44	6	8	4
158	-86	-3	16	13
157	-15	12	9	21
158	59	-9	16	9
157	46	-30	11	2
158	39	7	9	-4
158	0	40	15	2
157	0	58	17	3
157	13	75	35	-5
157	-12	88	30	-7
157	3	40	17	-7
158	-4	13	11	-3
157	-21	16	3	1
158	-60	11	1	7
157	-68	21	2	7
157	-37	9	21	2
158	-8	6	78	3
157	30	6	77	8
157	58	4	-40	12
158	79	-7	-112	7
157	66	-3	-22	-3
157	30	-16	2	-6
157	-13	-14	-12	-8
157	-58	19	9	-7
158	-29	25	-2	4
157	9	29	27	-1
158	13	32	19	2
157	30	27	18	4
158	-35	11	33	9
157	-103	14	31	8
158	-45	21	24	2
157	19	24	-12	3
157	44	38	-13	-1
157	65	67	-7	0
158	141	38	5	-2
157	219	-3	13	-3
158	123	46	10	0
157	-7	55	22	3
157	-75	52	8	6
158	-72	28	-9	4
158	-7	-20	-6	3
158	42	-15	-4	0
157	92	-2	-5	0
158	52	0	-1	7
157	13	17	-9	-1
158	-10	24	5	-9
158	-80	27	16	-6
158	-126	31	14	-5
158	-113	32	8	0
157	-28	34	-1	4
158	-45	17	5	13
157	-55	-6	5	-1
157	-7	-50	28	-8
157	20	-80	81	4
158	45	-83	51	11
158	20	-47	-42	14
158	-8	14	18	1
157	-37	50	77	-2
158	-26	166	-65	8
157	-32	232	-45	-1
158	-28	115	-6	3
158	24	38	-22	-10
159	54	43	67	-26
158	86	21	19	-14
158	72	-4	-31	0
157	42	-10	-50	3
158	31	2	1	7
158	38	2	34	5
158	43	3	19	-1
158	1	-4	26	10
158	-85	-8	-23	10
157	-82	-2	-1	0
157	-71	-7	10	4
157	-91	-22	12	7
157	-64	-11	12	9
158	37	8	12	8
157	172	7	18	1
158	182	18	14	1
158	185	16	50	4
158	115	23	68	0
158	32	27	27	-9
158	-10	21	-69	-8
157	-57	21	-57	9
158	-104	14	2	3
157	-151	15	-16	-1
158	-59	-3	0	-1
157	4	-2	12	-2
158	13	34	12	2
158	22	75	18	-4
157	3	79	12	3
157	11	29	23	-1
158	16	22	29	-5
157	-3	2	22	-2
157	1	-20	17	0
157	-11	-6	15	4
158	-38	-4	10	15
158	-40	6	10	17
157	-12	18	15	14
158	28	19	34	4
157	-3	24	25	-4
157	2	36	-10	0
159	15	47	-17	-6
158	-15	33	-3	-2
157	-35	22	5	2
158	-33	30	10	-5
157	54	32	6	-6
158	59	23	1	-2
157	27	-3	11	-2
158	66	-19	17	-1
158	191	-7	-10	2
157	176	8	-19	2
157	-40	21	10	3
157	-145	16	9	3
158	-179	17	9	3
157	-20	40	23	13
157	63	39	69	19
157	75	28	42	2
158	126	22	-71	-6
158	69	19	6	-14
158	41	12	51	-14
158	-32	24	-93	-5
158	-3	32	-46	3
158	31	6	32	22
158	2	-34	29	11
157	-21	-48	9	2
158	-125	-18	-67	0
159	-154	8	-19	0
158	-89	31	-1	-7
158	-14	51	3	-12
158	28	54	29	-2
158	46	34	20	3
158	50	39	41	11
157	1	58	40	11
157	-8	25	63	13
158	-19	-42	77	8
158	-60	-63	30	-4
158	-40	-35	-44	-4
157	-1	-14	-57	-22
157	18	32	-28	-18
158	47	74	6	-2
158	87	133	18	-3
158	97	166	-5	2
158	88	87	6	1
157	65	33	9	-2
157	14	35	6	0
157	-2	31	31	-3
157	26	3	51	-1
158	9	-6	-21	9
157	-51	1	-75	14
157	-128	-14	-9	9
158	-152	-25	10	11
157	-115	-8	3	10
157	-11	10	24	11
158	98	-15	18	2
157	104	-19	25	-1
158	144	2	20	2
158	113	10	32	-8
157	-2	35	35	-5
158	-82	45	16	0
158	-100	32	8	-1
157	-16	21	0	-1
157	-9	15	-3	3
158	38	5	-2	0
157	132	5	10	4
157	128	3	16	10
158	93	6	25	7
158	33	18	24	7
158	-48	15	19	5
158	-105	16	16	9
158	-67	24	23	9
158	-24	34	74	4
157	-26	24	92	8
158	-40	15	15	-5
157	-43	16	-65	-21
158	-25	17	-115	-4
158	-58	17	-68	0
158	-95	17	31	-5
157	-36	23	-24	5
158	13	3	-15	5
158	48	-6	10	6
157	117	5	-19	0
158	120	7	12	2
158	50	11	-2	0
157	5	-8	19	0
157	17	-3	2	3
158	-70	11	8	5
157	-79	33	19	7
157	-34	43	13	-2
158	-4	11	37	-5
157	172	47	36	-12
158	201	111	10	-13
158	140	58	-15	-1
157	54	9	34	9
158	49	1	56	11
157	-21	-20	26	9
158	-164	-19	19	6
157	-109	-12	21	-24
158	-15	19	0	-36
157	68	62	-40	-1
158	57	141	-45	10
157	16	160	0	1
157	-13	110	31	7
158	7	134	50	11
157	10	83	51	9
158	-5	9	-61	14
157	-9	-56	-68	15
157	-32	-180	14	3
157	-64	-129	2	2
157	-89	-72	-2	0
158	-64	-101	1	6
157	-64	-25	6	2
158	-31	-6	6	-2
157	-16	-15	5	1
157	34	-20	16	1
158	71	-52	12	-1
157	27	-14	14	-4
157	36	-5	12	4
158	16	9	10	7
158	20	29	10	9
157	12	77	10	4
158	-56	154	17	6
158	-33	108	21	18
157	61	52	29	7
158	46	50	27	2
158	16	33	5	6
158	-4	16	-3	4
158	-23	6	13	3
157	46	19	15	4
157	84	23	23	-4
157	143	29	22	0
157	120	40	-12	-1
157	-4	38	-2	-18
157	-25	42	23	-20
158	-21	36	4	-3
158	-39	44	25	7
157	-47	74	68	0
157	-59	40	67	-3
157	-69	8	-19	0
157	-89	24	-105	4
158	-97	14	-86	4
158	-57	8	-3	5
157	-5	-6	1	4
158	47	-8	-43	7
158	110	-10	9	-1
157	124	-14	4	-4
157	120	-6	-3	-1
158	99	1	17	2
158	39	9	13	9
157	-41	11	27	6
158	-34	22	9	2
157	18	28	8	-6
157	11	28	9	-11
158	-17	17	27	-7
157	-44	8	40	-2
157	-60	-9	43	1
157	-53	-31	2	2
158	-15	-16	-33	0
159	-5	13	16	-2
157	-2	32	7	10
158	11	48	2	-2
158	35	71	12	-3
158	64	74	5	7
157	8	24	14	1
157	-29	15	8	2
157	-46	18	15	-1
158	-52	17	21	-1
157	-38	24	33	1
158	-48	18	32	11
158	28	13	-4	14
158	67	-2	8	7
157	52	-1	46	2
157	72	32	47	-2
158	105	73	-15	1
158	151	33	-96	15
158	136	28	-24	-4
158	24	42	3	-10
157	-93	19	-20	-2
157	-70	27	20	-7
158	-66	13	15	0
158	-91	0	34	-5
158	-125	-5	5	2
158	-154	-11	-5	1
157	-60	-8	10	4
157	-40	1	15	9
158	-16	15	26	7
157	66	17	7	-3
158	131	21	-2	-2
157	164	28	1	3
158	106	19	33	-5
157	88	15	65	-1
158	85	12	89	0
157	74	8	4	14
157	44	22	-107	7
159	-21	18	-26	-18
158	-36	-4	109	-11
157	-48	2	48	5
157	-63	31	-104	16
157	-61	54	-102	4
157	-81	55	12	-7
157	-62	34	1	-2
158	-44	-12	-4	-7
158	-47	-50	22	-2
157	7	-36	2	-3
157	26	-38	21	3
157	25	-76	7	1
157	16	-31	15	3
158	64	114	13	13
157	112	255	26	9
158	85	202	31	16
157	24	92	16	11
158	-32	103	24	10
157	8	48	2	-2
157	-6	-38	-15	-11
158	15	-83	-8	-19
157	17	-82	-5	-11
158	7	-40	-4	-2
158	45	-30	15	2
157	-38	-26	26	11
158	-53	-8	37	7
157	-65	-6	15	12
158	-123	3	0	-1
157	-167	17	-1	-6
158	-94	12	5	4
157	65	1	17	7
157	97	-8	8	3
157	161	-14	12	2
157	136	5	14	-2
158	69	24	32	-1
157	72	92	49	0
157	44	112	53	-5
158	19	23	39	2
157	-21	20	-66	15
158	-18	32	-108	6
158	-21	19	-2	-6
158	-21	40	4	1
157	-13	26	-5	-9
157	-25	31	10	-1
158	-21	19	-4	6
158	-19	13	19	1
157	-22	15	9	7
157	-56	6	15	-1
157	-20	-1	21	2
158	58	0	17	-1
157	43	12	14	6
158	57	10	14	9
157	50	1	14	-2
157	-96	-16	-8	-6
158	-214	-8	20	-3
158	-156	-2	46	0
157	-49	-1	19	3
157	47	27	5	9
158	140	67	58	5
158	147	94	104	2
158	175	60	22	6
157	152	24	-173	7
157	113	27	-156	-2
157	66	9	43	-1
158	-32	9	14	6
158	-71	9	10	5
158	-111	-6	22	7
158	-132	-3	5	-4
158	-180	-3	53	-3
158	-155	26	29	-10
157	-49	41	5	-11
158	18	38	-33	-1
158	106	35	0	0
157	151	25	20	6
157	171	24	19	6
158	151	32	29	10
157	103	38	-16	10
157	49	15	-21	-4
158	-17	0	-1	0
158	-20	-23	21	0
158	3	-31	17	-6
158	-12	-3	29	-7
158	-35	10	12	-5
158	-38	11	3	6
158	-50	38	9	-12
158	-67	76	16	-9
158	-56	84	24	5
158	-45	52	3	-5
157	-29	-7	12	0
158	-3	-2	8	9
157	13	10	13	6
157	29	1	13	7
158	38	2	8	7
157	38	1	11	7
157	32	10	8	9
158	17	2	16	6
157	13	9	14	10
157	-3	17	31	9
157	-12	26	56	6
158	-28	26	34	2
158	-57	37	-51	-6
157	-46	39	-48	-9
157	-3	24	6	-4
158	-26	21	3	11
157	-82	1	-8	13
157	-54	15	-36	14
157	8	18	10	13
157	92	-4	21	2
157	165	12	4	-9
158	136	0	-1	-6
158	154	-17	-18	-2
157	190	-31	11	-2
157	82	-23	2	2
158	-26	-14	27	-1
157	-102	-29	61	0
157	-129	5	111	-6
158	-82	75	65	-8
158	-20	180	-127	16
158	-35	150	-124	19
157	-123	28	27	-4
157	-158	31	81	-16
158	-136	40	45	-10
158	-52	29	-79	0
159	77	8	-84	2
158	161	-3	37	-7
159	189	11	13	-8
157	212	17	8	-9
157	174	22	15	-6
157	67	3	4	-3
157	-30	5	21	-5
158	-51	16	0	-2
158	-86	4	15	2
158	-90	4	10	4
157	-34	22	14	7
158	-33	55	19	17
157	-5	80	18	15
158	9	52	18	9
157	24	31	21	16
157	55	30	37	16
157	9	5	23	10
158	-83	-39	7	-2
157	-161	-103	-3	-17
157	-172	-98	9	-19
158	-118	-43	13	-9
158	26	-29	1	4
157	163	-10	-1	-1
158	173	18	-4	-1
158	167	6	-1	-1
158	105	0	-2	2
158	4	-9	2	6
158	-62	-15	6	3
158	-95	2	5	6
158	-7	12	7	2
158	86	44	2	3
158	72	82	6	0
158	29	124	12	0
157	24	120	6	-3
157	-14	60	7	1
157	-37	0	14	7
157	-88	-3	19	6
157	-41	17	18	9
157	14	40	43	4
157	-7	101	72	-1
157	42	84	27	0
158	12	30	-35	1
157	11	10	-27	8
158	-9	8	-35	16
157	-19	-3	-22	0
158	-13	-10	-5	-8
158	-37	5	-18	-3
158	-15	3	19	-3
158	-5	18	14	4
157	43	31	45	2
157	75	31	94	0
158	86	14	27	0
158	74	15	-90	0
157	49	21	-85	-5
158	38	15	7	-7
157	-2	20	10	3
158	-30	25	27	4
157	-26	24	18	12
158	-35	19	-20	3
157	-62	24	1	-1
157	-35	22	30	4
158	-2	18	75	-5
157	4	4	72	0
158	6	-7	-20	15
157	16	5	-96	15
158	-14	6	-8	-6
157	-102	7	14	-13
158	-130	13	-21	0
157	-149	4	7	4
157	-130	8	-7	6
158	20	18	17	-13
158	186	25	17	-14
158	283	11	28	-6
158	207	0	25	-3
157	106	14	16	-7
157	72	12	36	-2
158	-16	4	21	10
158	-69	3	15	12
157	-75	-2	4	19
158	-48	-25	8	12
157	-39	-32	17	9
157	1	-3	12	8
157	12	0	8	0
157	35	1	10	2
158	52	34	20	3
158	19	104	27	3
158	12	149	27	-1
158	-42	81	4	-9
157	-90	27	25	-20
157	-85	59	41	-7
158	-43	82	-43	9
157	-3	29	-71	10
157	36	3	12	-1
158	62	51	18	-8
158	83	22	-15	0
158	87	-20	-32	-3
158	51	-7	-9	3
157	7	0	31	2
157	-18	-15	15	0
158	-12	-7	27	-4
157	-52	5	15	-2
157	-95	27	-5	-3
158	-105	56	5	0
157	-69	32	37	10
158	-1	-6	28	9
157	85	-19	-10	15
158	157	-15	6	11
157	175	-14	17	10
158	164	2	9	-1
157	66	18	-39	-6
158	-98	44	-43	-5
157	-228	51	-10	-5
157	-182	32	8	2
157	-118	24	63	1
157	-22	13	72	5
157	123	16	-31	6
157	175	23	-90	0
157	199	24	19	-3
158	142	10	73	-4
157	35	8	81	-6
157	-49	11	57	3
157	-20	15	-83	20
158	-75	26	-42	6
158	-137	24	8	-26
158	-25	31	-33	-16
158	28	18	23	3
157	-13	3	14	2
157	-50	-3	14	-1
157	-42	-8	20	-5
157	-11	-17	-8	-2
157	22	-16	17	-2
158	20	5	17	-1
157	38	25	15	2
158	21	74	25	4
157	-26	82	24	11
157	-18	66	16	7
157	15	64	16	2
158	24	42	18	3
157	12	20	21	6
157	13	-43	17	10
157	25	-65	-7	14
157	9	-18	-20	7
157	-38	1	-9	4
158	-68	-13	15	10
157	-56	-8	10	18
157	-78	-6	9	20
158	-86	-3	47	-4
158	3	1	72	-19
157	123	-4	13	-9
158	117	8	-63	7
157	18	12	-30	1
158	8	11	-23	-4
157	52	21	-28	0
158	123	36	10	-5
158	205	66	1	-2
158	210	112	17	-8
157	96	143	15	-9
158	-4	131	6	-8
157	-73	62	19	-5
158	-111	18	25	2
158	-41	4	43	4
158	-43	0	19	11
157	-48	6	-20	12
157	-32	-6	-14	9
157	-35	6	20	0
158	-24	-2	12	0
158	-23	-19	-19	7
158	-18	-40	-21	6
158	-34	-46	4	4
158	-32	-29	6	7
158	-31	-9	27	1
157	-18	7	91	8
157	7	25	94	11
158	26	59	-7	10
158	27	44	-88	3
158	-12	97	-60	-13
157	17	131	-51	-25
158	26	43	-6	-21
157	-30	8	48	-5
158	27	18	85	-3
158	80	13	71	15
157	22	-3	-71	13
158	19	19	-70	-4
158	3	6	28	2
158	-30	-3	2	-2
157	-25	7	5	0
158	-20	1	26	1
158	-8	1	5	2
157	-9	-6	14	3
157	11	2	6	-3
158	9	2	8	8
157	20	13	3	5
158	25	14	6	3
