File Name: not saved
Channel 3: 'EKG', 23610 values, raw ADC, no filters.
Channel 4: 'FCR_EMG', 23610 values, raw ADC, no filters.
Channel 5: 'FCU_EMG', 23610 values, raw ADC, no filters.
Channel 7: 'ECU_EMG', 23610 values, raw ADC, no filters.
Channel 8: 'ECR_EMG', 23610 values, raw ADC, no filters.

158	22	15	-78	15
158	4	25	-66	10
158	-10	23	22	9
157	-46	18	45	4
158	-54	22	66	7
157	-15	23	107	2
157	4	22	2	-2
157	-1	24	-77	4
157	-17	26	-10	0
157	-27	25	9	1
157	-5	24	-21	0
157	10	18	-13	0
157	15	17	19	9
157	26	15	54	2
157	26	15	8	-2
158	23	21	-91	-1
157	12	23	-43	-3
158	7	17	33	2
158	1	13	8	9
158	-2	12	27	7
158	-3	15	19	3
158	-5	18	13	0
157	-8	19	28	2
157	-18	20	24	4
158	-30	14	31	3
158	-34	13	28	2
158	-37	9	53	10
158	-37	11	23	-1
157	-5	19	-9	-6
157	33	20	5	-1
158	57	15	24	-5
158	59	17	15	-7
157	64	16	14	-12
158	71	22	17	-3
158	38	30	7	-5
157	5	24	10	-7
157	-5	26	-6	-2
157	-8	21	0	-7
158	-6	24	5	0
157	-4	22	17	9
157	-13	14	18	4
157	-29	17	-7	-6
157	-37	19	-14	4
158	-27	14	-5	11
158	-6	14	-1	6
158	12	14	-9	9
157	21	15	5	10
158	15	19	9	6
159	6	17	16	6
158	7	16	7	11
157	5	18	3	7
158	5	15	38	5
158	2	14	17	0
157	-11	13	-15	-5
158	-41	18	-18	1
157	-27	18	-14	3
158	12	14	-12	-1
158	19	19	-9	-2
158	43	24	2	9
157	54	22	-2	-4
157	73	27	7	-12
158	74	26	17	0
158	43	22	26	8
157	30	19	48	7
158	-10	13	50	-7
158	-21	19	-23	-2
157	-11	28	-72	7
158	-12	19	2	7
157	-12	13	12	8
159	-12	13	1	4
158	-5	8	20	3
157	-17	14	17	-1
157	-53	17	29	-4
157	-49	15	17	0
157	1	21	0	2
158	8	22	-4	4
158	9	15	27	0
157	27	18	69	0
157	43	14	77	1
157	27	14	-3	7
157	-22	19	-69	14
158	-10	12	-12	6
157	2	15	-10	-4
158	-1	18	1	-1
157	14	17	33	-1
157	14	22	-8	-2
158	17	22	-27	1
158	24	19	4	0
158	21	16	16	0
157	11	17	-5	1
157	3	18	13	3
158	8	19	8	-3
157	2	17	6	-7
158	-1	4	12	-2
158	3	-30	14	-1
158	3	-52	34	1
157	0	-44	56	3
158	-6	-44	84	1
157	-2	-37	33	-1
158	-1	-21	-82	3
158	5	-3	-75	2
158	1	-4	29	5
158	1	6	-8	12
157	1	14	-1	2
158	-8	14	13	11
158	-17	26	-16	4
158	-24	26	-16	1
158	-14	35	-29	-3
158	0	35	19	-4
158	19	40	8	5
157	45	50	8	-9
157	53	48	15	-2
157	40	49	20	-6
157	14	55	24	-1
158	5	58	8	-3
157	-6	52	8	-9
157	-13	47	4	-6
157	-18	49	37	-2
157	-21	49	42	10
158	-18	45	37	19
157	-8	38	40	27
158	15	39	8	5
157	26	45	-28	-21
158	27	42	-24	-12
157	30	40	10	-6
157	24	34	42	-6
157	9	31	38	4
157	-12	29	38	-4
157	-19	27	-20	-4
157	0	36	-80	0
157	16	33	-6	-15
158	24	32	12	-9
157	25	30	8	0
157	19	21	10	6
157	32	21	-10	6
158	29	20	6	4
158	14	17	5	6
157	1	17	31	7
157	-8	19	49	13
157	-9	15	66	13
158	-8	14	49	6
158	-9	12	-52	8
157	-6	17	-81	3
158	-5	17	6	0
158	-5	14	14	5
157	-2	13	10	4
158	-2	10	36	0
158	-3	15	13	-7
158	-8	17	17	-9
157	-13	14	-6	-5
157	-3	10	-11	-2
158	4	10	-19	1
157	0	9	-39	7
158	-26	5	-32	2
157	-37	14	-15	2
158	-9	14	9	11
158	5	14	25	3
157	9	15	52	6
158	13	12	49	3
157	25	15	37	4
157	40	15	2	7
157	35	18	-9	4
158	35	18	13	3
157	32	13	5	-2
158	18	10	17	1
158	5	11	19	4
157	-22	15	33	6
157	-34	18	47	2
158	-16	18	0	5
157	-12	17	-37	12
158	17	15	-9	4
157	28	17	-5	-15
158	35	28	-36	-10
158	60	23	-7	0
157	57	17	7	-4
158	43	20	3	-3
158	-1	17	10	0
158	-28	13	12	4
157	-35	13	10	-1
157	-29	17	5	-1
157	-11	14	14	1
157	-3	15	16	2
158	5	13	18	9
158	27	7	24	7
158	37	10	26	7
157	19	14	4	1
157	13	18	-9	-4
157	12	17	0	-12
158	7	18	-3	-15
157	-3	22	-4	-6
157	-12	22	-2	6
158	-3	15	-1	14
158	2	18	10	9
158	-5	18	38	-2
158	-13	18	65	-4
157	-8	18	27	0
158	-5	17	-30	-1
158	-3	21	-74	1
158	1	22	-43	0
157	3	17	37	-5
158	2	11	10	7
157	3	15	24	-5
157	4	17	18	-5
158	0	16	-16	3
157	-24	15	22	10
158	-45	13	54	11
158	-27	11	57	4
157	-22	12	-30	9
158	-12	19	-92	10
158	19	17	-12	5
158	36	10	52	3
158	54	18	38	13
157	56	21	66	1
157	46	14	43	-8
158	48	19	16	-9
157	30	21	-4	-6
158	7	25	1	-5
157	4	23	36	-6
157	-14	17	-7	3
158	-27	17	-4	3
157	-18	19	16	5
157	-13	22	25	3
157	-5	19	7	3
157	-11	20	-20	3
157	-11	22	10	-6
157	9	20	22	-4
158	13	15	-14	-1
157	0	13	-42	1
157	-5	15	-10	3
157	-4	14	25	4
158	5	14	13	8
158	7	17	4	0
158	9	18	-4	4
157	26	17	-18	11
157	32	26	-10	10
157	34	26	-4	9
157	25	25	5	4
158	35	22	5	3
158	27	21	2	2
157	-4	18	22	0
158	-10	16	25	2
158	-12	22	18	3
157	-5	22	22	2
157	-1	22	19	-1
158	2	20	-9	-1
158	1	21	-29	-1
158	2	19	3	-8
157	5	19	14	-16
158	0	17	-3	-15
157	3	12	6	-10
158	0	19	23	-6
157	-2	17	48	-4
157	-3	15	46	2
159	3	17	3	17
157	1	11	-17	15
158	0	14	-14	-3
157	1	18	-11	0
157	0	15	16	2
158	-11	12	12	1
157	-14	15	8	-5
158	-3	18	19	-4
157	8	18	6	4
157	14	14	-1	1
157	13	19	11	14
157	-4	17	21	10
158	-8	17	16	12
157	-3	20	40	14
158	-6	19	40	7
157	9	19	-7	16
158	25	25	-4	16
158	17	17	8	0
157	28	18	-90	-6
157	37	22	-62	-16
157	31	14	14	-13
157	26	19	-13	0
157	17	17	40	-3
157	8	19	20	0
157	0	21	17	0
158	-4	18	16	9
158	-4	18	0	8
158	-2	15	25	7
157	-9	13	30	6
158	-22	13	48	-7
157	-19	18	14	-9
158	-14	16	8	-8
158	-20	15	-4	-4
157	-19	19	-8	-5
158	-17	16	9	-2
158	-50	15	10	0
157	-49	17	22	-1
158	25	21	25	3
157	59	25	43	8
158	69	26	35	8
158	82	24	17	9
158	75	23	21	8
158	83	24	20	9
158	53	18	25	9
158	24	12	17	2
157	3	14	-7	-6
157	-19	24	-39	-8
158	-16	20	-37	-4
158	3	19	23	-8
157	12	18	1	0
158	5	11	-33	2
158	-5	12	8	1
158	-7	16	5	-1
158	-26	22	8	-6
157	-69	17	5	1
157	-91	11	-20	10
157	-54	8	-19	17
157	-7	15	0	5
157	5	15	20	8
158	-3	11	-19	-5
157	-12	17	-41	-20
158	3	22	-7	-10
157	25	29	2	-6
158	33	35	-8	0
158	38	25	-12	-3
157	44	25	1	0
158	28	25	10	0
157	-1	20	7	2
158	8	19	18	-1
158	3	17	18	-1
158	1	16	14	6
157	15	19	24	3
157	30	19	61	10
158	47	15	70	14
157	35	14	-34	15
157	32	18	-78	13
157	25	16	-5	4
158	-1	14	3	9
157	-7	14	27	2
158	-2	17	56	5
158	-8	18	70	11
157	-11	15	80	5
158	-10	15	18	2
158	-12	14	-16	4
158	-8	15	-13	7
158	-11	15	44	-6
158	-9	17	6	-13
157	-7	17	-36	-18
158	-6	12	14	2
157	-5	13	9	5
158	-6	18	1	3
157	-2	21	-7	4
158	7	24	0	-6
157	10	23	0	-6
158	7	18	-8	-2
158	5	14	-8	-3
158	-9	16	4	-13
157	-32	19	19	-5
157	-38	22	38	-1
158	-22	23	64	2
157	-10	15	16	0
158	7	17	-56	2
158	33	24	-38	13
157	50	15	35	11
158	61	19	7	11
157	53	24	-11	6
158	27	22	17	4
157	23	23	7	-1
158	33	21	4	-5
158	18	22	3	-6
158	1	23	18	0
157	5	19	17	1
158	-5	22	19	-1
158	-20	25	21	4
158	-26	24	-2	-5
158	-15	19	-18	6
158	2	18	-16	6
158	10	14	23	13
158	33	13	41	19
157	32	13	22	13
158	15	13	27	11
157	7	14	26	-4
157	-7	14	-3	-8
157	-17	17	-17	-7
157	-30	11	-14	-13
158	-22	16	-33	-6
157	12	16	-20	0
157	24	16	-8	-16
158	25	25	-11	-16
157	19	24	16	2
157	-1	18	1	6
157	-8	18	0	6
157	-1	18	-2	3
157	1	18	18	8
157	5	19	45	14
157	13	13	25	10
157	9	7	20	4
157	7	11	22	-8
157	-6	18	59	-7
158	-19	14	58	3
157	-9	15	-48	-1
158	2	24	-81	0
158	5	21	9	2
158	15	22	7	7
157	34	26	-3	3
158	25	25	19	8
158	8	18	13	13
157	1	15	41	0
157	-4	15	28	8
158	-4	15	1	3
158	-4	18	-26	-5
157	14	22	-15	-8
158	22	19	8	-10
157	19	22	10	-2
157	14	22	38	-1
157	3	18	18	-3
157	-4	17	-22	3
157	-9	21	-15	6
158	-21	19	29	0
157	-35	17	13	4
158	-46	17	4	7
158	-62	13	-1	6
158	-50	15	-17	-5
158	8	17	-8	-4
157	34	21	-4	-6
157	57	23	19	-7
157	83	19	32	-1
158	79	19	48	9
157	85	19	29	9
158	64	18	19	4
158	48	19	36	9
158	9	15	51	8
158	-20	12	58	15
158	-6	16	-17	18
158	-7	21	-50	1
158	-11	22	17	-21
158	-11	18	-11	-24
158	-12	16	-58	-27
158	-13	15	-6	-16
159	-13	16	25	6
157	-14	9	4	-5
157	-10	17	-30	-1
157	-3	20	-19	-1
157	-5	17	5	-1
157	-7	17	2	12
158	-8	15	15	8
157	-5	22	26	4
157	4	25	61	7
157	5	22	68	15
158	6	15	-16	11
158	10	9	-81	3
158	5	15	-34	0
157	3	19	8	4
158	7	21	-1	6
158	3	19	9	3
157	5	21	12	2
158	0	21	13	-1
157	-1	18	19	0
158	3	23	16	0
158	5	21	13	4
157	3	21	15	3
157	5	21	21	2
157	10	16	22	-1
157	5	17	21	-1
157	5	18	17	3
157	3	18	10	-1
158	4	21	1	1
157	7	18	4	4
157	0	18	12	6
157	-8	22	20	2
158	-23	19	21	0
157	-31	18	18	4
157	-21	16	6	7
158	-3	13	8	4
158	18	21	-2	-11
158	34	21	-4	-7
157	40	18	3	-1
157	50	17	0	-5
157	53	14	4	2
158	55	17	6	4
157	43	18	10	6
158	15	15	10	7
158	6	16	9	3
158	-2	17	16	0
158	-4	19	12	3
158	-4	18	4	7
158	-6	11	2	11
158	-5	12	24	3
157	-9	14	53	-1
158	-10	11	-5	2
158	-4	22	-103	-3
157	0	28	-50	-4
157	-11	19	7	3
158	-24	18	-17	4
157	-21	17	16	1
157	-1	18	25	3
157	16	17	29	-1
158	21	18	14	2
158	32	24	-3	6
158	37	25	10	19
158	28	18	6	11
157	9	14	37	-17
157	3	19	72	-13
157	-3	14	59	1
159	-7	18	-58	8
157	5	26	-78	1
158	-1	21	17	-4
158	-6	22	1	-1
157	-7	20	5	0
159	-7	21	10	-1
157	0	26	8	-2
158	0	18	34	3
158	3	21	23	2
157	-3	22	15	0
157	-20	16	-13	-7
157	-56	19	-12	-12
158	-38	18	10	-3
158	10	16	13	-1
157	17	20	24	1
157	32	16	32	1
157	35	9	16	-3
157	50	12	-5	2
158	56	11	5	1
157	40	15	16	-1
158	37	11	5	-1
158	17	12	1	4
158	11	24	13	2
158	23	21	22	6
157	-2	21	-4	11
158	-38	23	-13	-2
157	-68	26	10	-2
158	-73	24	26	9
158	-28	22	34	4
158	2	17	20	8
158	17	13	-13	10
158	42	14	-31	6
158	53	17	-3	6
158	68	21	6	4
157	73	22	-3	0
159	51	20	10	1
157	20	19	6	1
157	-27	18	12	0
157	-68	17	14	1
157	-52	17	4	2
157	-17	18	3	0
157	28	15	10	2
158	51	17	14	3
157	45	16	7	-2
158	46	15	8	-3
158	30	16	10	-3
158	11	14	9	-1
158	-27	15	11	-1
157	-48	17	10	-3
158	-42	21	15	-1
157	-14	28	10	6
158	23	24	6	6
157	5	21	0	11
157	-7	18	-10	9
157	-15	19	-6	4
157	-9	22	3	6
158	-7	13	12	-1
157	-11	13	21	-3
157	-5	21	47	-3
157	-3	20	99	4
157	1	13	95	10
158	2	9	-34	24
157	7	10	-125	4
158	3	22	-51	-26
158	3	23	-9	-10
157	11	23	-19	-13
158	18	25	0	-6
157	16	15	-19	7
157	3	15	17	-8
157	7	19	27	-16
158	5	21	9	-9
157	5	19	19	-8
157	6	22	9	-2
157	8	17	22	10
157	6	17	13	4
157	4	17	8	7
157	5	12	10	9
158	8	17	10	4
157	9	15	14	3
157	8	16	15	6
157	6	16	18	2
157	5	14	12	-1
157	5	15	11	0
158	7	19	10	2
157	4	19	10	2
158	5	22	7	2
158	3	22	8	4
158	3	18	5	0
158	5	19	5	5
157	5	19	10	3
158	3	17	21	10
158	4	18	55	15
158	3	18	72	0
157	3	14	6	-1
158	9	18	-65	7
158	9	15	-30	-3
158	6	18	-11	-4
157	8	22	-13	11
158	2	14	13	6
157	3	13	-10	11
158	3	13	-7	4
158	7	16	-5	-4
159	8	17	-3	-4
158	9	17	15	-4
157	7	17	10	2
158	7	15	15	0
158	5	21	16	-1
158	1	19	20	-5
158	-1	19	4	-1
158	1	16	6	3
157	9	14	24	2
158	12	16	39	-3
158	7	18	41	2
158	3	20	4	2
158	10	22	-19	-14
158	20	25	-41	-12
157	16	23	-21	-4
158	1	17	2	4
159	-11	23	-20	2
158	-10	19	-10	7
157	-5	21	-11	15
158	-1	25	2	14
157	6	15	10	6
157	17	18	17	-2
158	27	17	24	-7
158	25	17	27	-6
157	15	19	38	6
157	11	19	43	4
158	10	19	53	3
157	8	18	45	2
157	2	19	24	-1
157	1	20	7	0
157	-2	19	5	0
158	-1	17	4	-2
157	-1	16	10	4
158	1	18	10	9
157	3	19	-2	-1
158	1	18	0	-1
157	1	17	0	-6
158	2	15	2	-4
158	2	19	-5	-1
157	3	18	-19	-7
157	5	17	-16	-11
157	5	22	-8	-4
158	10	20	-4	12
157	4	19	-3	8
158	2	17	-4	8
158	3	17	-4	6
157	1	17	-1	3
157	3	18	-4	8
157	3	17	-2	6
157	5	17	4	2
158	6	16	15	2
157	7	17	28	0
157	8	17	22	2
158	6	18	12	7
157	5	15	12	-1
158	1	15	9	0
157	3	17	6	4
157	1	19	13	-1
159	1	19	6	3
158	1	21	5	4
157	0	21	10	4
157	11	19	32	6
157	18	21	69	9
157	8	19	13	10
157	4	15	-62	14
158	4	15	-22	4
158	4	14	-2	-10
158	8	17	-3	-9
158	5	15	16	-8
157	3	19	-22	0
158	6	19	8	-5
158	6	16	9	-5
157	5	16	4	-5
157	5	17	20	-2
158	5	20	4	4
157	3	18	22	7
157	4	20	5	8
158	4	23	3	6
158	5	20	-1	11
157	7	15	0	7
158	2	15	16	0
157	4	15	4	2
157	5	17	0	-2
157	3	20	21	-14
158	6	22	27	-9
157	6	19	29	-2
157	3	17	42	-2
158	4	20	22	-4
158	4	19	6	-4
158	3	16	5	2
158	5	14	3	4
157	4	17	-19	-1
158	7	18	-15	-2
158	7	19	14	3
158	6	21	43	3
158	4	21	54	11
157	3	19	27	29
157	3	17	17	25
158	5	11	-58	35
158	7	17	-96	26
157	2	15	-6	-2
157	-2	19	-2	-2
158	3	23	1	-7
157	5	15	4	2
157	8	21	-7	-1
158	7	14	25	-10
157	5	15	22	-13
157	5	16	37	-19
158	8	21	25	-22
158	12	24	14	-16
157	8	18	1	-5
158	4	17	-11	-9
157	1	15	22	0
157	4	21	21	7
157	5	19	22	-1
158	4	21	21	-11
157	5	21	17	-26
158	5	24	17	-34
157	7	25	-10	-32
158	3	14	-31	-10
157	5	12	-5	-14
158	3	18	9	-29
157	6	24	6	-15
157	4	16	23	4
158	4	13	37	14
157	7	19	47	21
158	4	22	24	27
157	5	17	12	21
158	3	17	13	24
158	3	15	4	22
157	2	19	-3	16
157	3	19	6	12
158	4	16	24	1
157	5	19	10	11
157	4	21	-20	23
158	6	18	-27	25
157	5	17	-4	21
158	3	18	6	18
158	5	19	13	18
157	5	21	12	10
157	7	22	3	5
158	3	14	8	9
158	-3	12	2	16
158	-5	15	-7	9
157	-3	18	-14	8
158	-4	15	-23	9
157	-1	13	-38	2
158	7	19	-34	9
158	16	25	-23	20
158	28	19	-29	28
158	24	22	-26	16
158	17	25	-29	14
158	16	22	-7	13
158	11	17	59	9
158	4	14	98	7
158	1	14	71	0
158	3	13	1	-6
157	7	22	10	-38
158	12	26	90	-65
158	6	23	122	-84
158	0	11	41	-96
157	1	14	-63	-81
157	2	24	-56	-49
157	4	20	3	-25
158	2	21	8	-6
157	1	18	1	7
158	3	19	43	15
157	4	19	46	16
157	2	17	44	16
157	1	18	40	20
158	0	19	31	14
157	0	17	38	9
157	1	17	-20	6
157	5	18	-141	10
157	7	18	-140	19
157	5	14	-34	20
158	4	18	-12	26
157	4	17	63	26
158	4	14	74	30
157	5	16	32	18
157	5	20	60	5
157	7	23	30	17
157	5	18	33	19
157	5	18	33	21
158	3	14	58	17
157	0	7	81	3
157	-1	10	-38	0
157	5	21	-88	4
158	8	22	-58	8
158	5	22	-67	3
157	6	19	-32	8
158	8	21	-26	6
158	3	19	-17	4
158	3	16	33	2
157	-2	18	55	-6
157	-25	18	74	-10
157	-44	21	108	-9
158	-15	22	73	2
158	8	14	-13	2
157	8	12	-33	-9
158	18	17	-30	-16
158	31	17	-1	-13
157	47	18	0	-6
157	44	22	-11	-1
158	34	17	0	2
158	32	15	0	-5
158	30	22	1	-1
157	18	26	-15	-4
158	2	27	-1	-3
157	-4	19	-15	6
158	-8	14	-35	6
158	-6	17	-8	4
157	-8	15	4	3
157	-5	17	15	3
157	-4	15	25	0
158	-3	15	21	3
158	0	22	-4	6
157	-2	24	-18	6
158	3	24	7	5
157	5	18	24	9
158	3	12	10	4
158	0	13	-22	-10
158	1	20	-23	-17
158	3	18	-3	-12
157	3	17	-4	-8
158	4	16	14	-2
158	1	13	17	0
157	3	17	-2	-2
158	5	14	-1	-1
158	5	19	11	12
157	5	16	68	14
158	3	15	118	6
157	6	21	65	13
157	5	25	27	11
157	3	25	33	16
158	3	13	-5	14
157	1	17	-21	11
158	4	19	-3	5
157	5	16	8	-5
157	4	13	8	-11
157	3	10	15	-12
157	3	14	8	-12
157	4	14	24	-22
157	5	16	63	-28
157	5	16	40	-24
157	5	16	-63	-12
158	13	24	-104	-8
158	16	22	-6	-1
159	11	17	2	6
157	7	19	-7	0
157	3	17	13	-1
158	-6	16	-4	2
158	-4	19	-2	11
158	8	26	-12	15
157	10	26	37	13
157	14	23	42	11
158	10	17	-45	16
158	5	17	-90	20
157	7	13	-28	10
158	4	15	-8	-4
158	9	25	30	-6
157	6	17	102	3
158	5	14	88	-4
158	3	19	63	-10
158	2	21	4	10
158	6	22	-7	10
158	5	21	-17	2
157	2	19	-15	11
158	4	21	3	17
157	1	18	-1	18
157	-1	15	2	15
158	-1	21	-9	6
158	-1	21	6	-4
158	-4	20	18	-10
158	0	22	24	-9
157	12	19	15	-2
158	12	17	-10	0
158	3	16	-17	3
157	7	11	27	2
157	8	16	33	5
157	5	22	12	5
158	8	22	44	-5
157	5	18	31	-7
158	4	14	25	-4
158	11	14	5	-1
157	7	15	-4	-1
157	1	15	8	-4
158	-9	13	-27	0
158	-5	18	-13	4
158	-1	14	-22	6
157	1	10	-64	8
158	9	14	-15	8
158	11	11	6	-1
158	23	19	-6	-7
157	26	21	9	0
157	18	21	4	2
158	11	22	14	4
158	10	19	20	4
157	13	23	27	8
158	5	22	30	10
157	5	22	15	6
157	2	22	36	3
158	0	22	90	4
157	0	21	148	7
158	0	18	141	15
157	2	14	-24	20
157	4	21	-143	4
158	3	15	-108	-4
158	1	3	-87	-13
157	1	16	-32	-21
157	3	22	-44	-21
158	4	25	-35	-21
158	5	24	23	-12
158	6	24	-2	-8
158	3	19	41	-15
157	2	22	29	-25
158	5	24	5	-10
158	1	15	26	-2
158	1	19	27	-8
158	-5	20	38	0
157	-21	17	45	-1
157	-25	17	34	5
158	-6	17	0	5
157	2	15	0	-3
158	3	13	15	11
157	20	15	10	15
158	30	18	6	14
158	35	19	19	12
158	30	22	19	11
158	15	25	3	14
158	11	21	-2	13
158	14	19	-7	13
158	9	19	-3	11
157	9	17	5	-3
157	7	20	8	-1
157	2	19	12	-1
158	3	19	12	-2
157	1	14	35	5
158	-1	10	70	4
157	0	11	20	10
157	4	17	-56	21
157	5	22	-11	10
158	2	21	32	-4
158	9	19	-4	9
158	14	11	-38	0
158	6	15	-46	-1
158	-2	17	-7	-2
158	-1	17	8	-6
157	-5	21	29	-1
158	-2	18	51	-2
158	4	16	40	10
157	5	19	46	17
157	5	29	57	15
157	5	24	45	10
158	6	15	-7	10
157	3	16	-26	4
157	1	14	1	-2
157	5	16	-21	1
158	9	19	-16	-10
158	7	18	10	-8
158	5	12	5	-4
158	5	16	-34	-14
157	5	22	-106	-8
157	9	21	-47	-17
158	4	11	20	-19
158	5	15	17	-15
158	1	21	66	-26
157	1	22	74	-22
157	-5	20	67	-21
157	-10	21	33	-9
158	-6	21	34	-2
158	-6	19	69	3
157	-7	16	38	12
158	-19	15	-5	8
158	-13	17	-53	2
157	27	17	-82	5
157	35	18	-89	13
157	24	21	-75	12
157	25	19	-32	14
157	27	21	10	17
157	33	20	8	15
157	28	25	15	10
158	17	21	43	4
157	15	24	58	9
157	16	26	78	10
157	8	22	46	6
158	2	24	25	13
158	-2	15	21	18
157	-5	11	5	1
158	-7	13	-6	-12
158	-8	15	-14	1
158	-1	16	-3	0
158	-1	22	-8	0
157	0	18	-10	7
158	-1	13	13	-3
158	-1	15	13	5
158	0	14	8	3
158	0	18	8	-1
157	3	21	6	3
157	1	19	13	1
158	1	18	1	2
157	4	17	-18	-1
158	0	19	-15	-7
157	0	16	0	-2
158	4	18	4	6
158	4	18	15	11
157	3	13	3	14
158	7	10	-17	10
158	3	11	25	2
157	4	13	57	-3
157	5	14	53	8
158	3	21	31	3
157	4	22	62	4
157	5	21	31	6
157	4	22	-21	4
158	1	17	-1	4
157	3	17	-24	-6
157	4	22	9	-7
157	7	21	8	-6
158	5	24	9	-5
157	1	22	29	-6
157	2	16	23	-7
158	7	21	-20	-21
157	12	18	-44	-28
157	10	11	8	-25
158	5	19	-9	-24
158	7	24	21	-11
157	3	17	48	10
157	1	13	-2	10
157	5	12	-73	6
158	9	19	-63	-4
158	5	22	9	-12
157	7	20	-4	5
157	5	18	27	4
158	4	15	26	9
157	5	19	4	10
158	5	16	5	13
158	4	17	-5	13
158	5	17	-2	0
158	3	17	2	7
158	3	17	10	10
157	4	19	8	18
157	5	17	16	19
158	5	16	12	15
157	8	22	11	13
158	4	23	22	9
157	-1	24	26	6
157	-6	16	20	9
157	-5	11	10	10
158	0	12	1	-1
158	7	18	5	-7
157	10	18	27	-9
158	19	21	43	-6
157	26	25	31	3
157	23	25	-11	3
157	14	22	4	6
157	12	15	2	13
158	8	17	-13	2
158	4	17	-14	-1
158	0	13	-47	6
158	4	17	-12	-12
158	8	22	33	-12
157	4	23	4	-6
158	1	22	-12	-5
158	1	18	13	-7
157	-4	15	33	-16
157	0	17	20	-4
158	3	18	-33	7
157	10	16	-8	8
158	7	13	12	3
158	1	10	19	-5
158	0	17	58	-8
158	-3	17	12	-8
158	-3	14	-13	0
158	-2	17	4	0
158	2	17	16	-6
157	3	20	34	6
158	4	22	31	9
157	8	21	-7	4
158	4	22	41	13
157	1	21	41	10
158	-14	17	-37	7
157	-26	21	-33	3
158	-17	21	-12	2
157	4	11	8	3
157	5	14	20	-2
158	7	18	31	-2
157	16	19	11	1
158	28	25	13	4
158	42	26	53	2
157	43	28	111	7
157	29	19	105	4
157	17	8	-49	3
158	17	20	-147	2
157	11	25	-36	-5
158	0	17	33	-1
157	0	21	-9	4
158	1	16	4	3
157	0	17	-25	1
158	-2	19	10	-2
157	-2	18	40	6
158	3	14	-8	21
157	3	17	-12	22
157	4	19	-2	25
157	3	19	27	31
158	0	21	25	22
157	1	15	0	13
158	1	16	-35	0
158	1	20	-60	-15
158	0	18	-50	-23
158	3	21	-17	-48
158	5	21	9	-58
157	3	21	37	-52
157	4	21	74	-35
157	3	16	73	-18
157	0	17	54	-6
158	5	19	27	3
158	2	18	19	2
157	1	18	18	13
157	3	15	8	24
158	1	10	-10	35
157	0	8	-11	28
157	0	13	-35	16
158	7	23	-48	12
157	5	18	-5	5
157	4	18	-3	-5
158	4	22	0	-13
158	5	20	5	-10
158	9	19	17	-16
158	7	17	8	-19
158	5	21	-10	-23
158	4	16	27	-21
158	4	17	21	-10
158	4	18	21	5
158	8	17	24	10
157	7	21	19	10
158	5	21	24	16
158	5	23	21	17
157	6	18	24	27
157	7	9	8	27
157	5	11	2	19
158	7	22	9	11
157	5	17	-1	13
157	7	10	-48	16
157	9	18	-24	8
159	6	17	70	8
158	5	16	57	12
158	5	13	1	11
158	4	15	-24	3
157	7	26	-34	4
157	6	21	-17	11
157	3	19	2	9
157	3	18	9	13
158	-1	18	10	12
157	-2	19	35	-2
158	2	24	75	-20
158	5	21	79	-16
158	9	16	-12	-6
157	14	23	-34	-8
158	10	17	40	-10
158	4	21	-11	-12
158	6	19	-12	-6
157	5	20	12	-7
157	7	23	-5	-4
158	6	22	19	-1
157	8	23	2	-5
158	1	17	5	-7
157	0	11	-11	0
157	5	13	-8	-5
157	7	18	15	-5
157	7	14	37	0
157	6	16	62	5
158	5	17	0	15
158	7	18	-72	18
157	6	17	-30	10
157	0	9	5	2
158	3	15	-10	15
158	7	16	13	11
157	3	19	21	8
157	6	21	34	-1
158	2	15	14	-8
157	-4	11	-20	-7
157	-13	14	-30	-4
158	-7	17	-19	-3
158	-3	13	6	-5
157	4	15	8	0
158	11	15	24	3
158	11	22	14	4
158	26	19	7	0
158	29	24	7	-7
157	24	29	8	-8
158	20	21	23	0
158	13	26	19	2
157	10	23	20	-1
157	4	25	10	3
157	3	25	14	10
157	-1	22	16	4
157	-2	21	9	4
157	0	17	9	10
157	2	11	0	9
158	-3	11	6	4
157	0	20	15	2
158	3	11	-3	2
157	3	12	-18	-4
158	1	15	-4	-10
157	2	18	-4	-6
157	1	18	14	2
158	1	19	49	2
157	5	24	70	-2
157	0	22	56	-5
157	0	15	-28	3
158	3	14	-77	5
158	3	19	-7	1
157	5	19	31	0
158	3	22	30	-1
157	4	25	35	-3
157	5	18	-11	-7
158	3	10	-42	-5
157	3	11	-102	-3
157	8	22	-39	-6
157	3	20	55	-5
157	-15	15	9	9
158	-22	16	34	7
157	-10	15	37	2
158	8	16	27	5
158	13	19	19	3
157	13	22	10	-1
158	16	19	13	7
158	23	21	8	11
158	25	21	51	6
157	21	24	51	-4
157	19	22	-19	7
157	23	21	-68	9
158	19	23	-9	-9
157	5	18	-27	-2
157	3	17	-53	-2
158	3	17	2	11
157	2	16	-5	12
157	-2	14	21	9
157	-4	17	29	17
158	-5	13	32	9
157	-3	17	25	9
158	3	18	24	3
157	1	19	43	-1
157	0	18	27	0
158	-1	15	3	-13
157	3	14	-18	-23
157	4	21	-25	-19
158	6	25	-20	-4
158	5	17	29	0
158	5	21	40	-2
157	4	19	38	7
157	1	21	46	11
157	-7	23	41	17
157	-11	14	60	18
158	-4	11	55	8
158	-3	15	35	4
157	5	14	10	2
157	12	14	-12	-1
157	20	17	-27	0
158	28	17	-21	-8
157	22	20	-12	-7
157	16	17	-9	4
157	9	17	-13	2
158	8	18	-22	4
157	7	15	-14	3
158	5	17	-16	0
157	1	19	-1	0
158	-1	15	5	3
157	-1	15	2	-3
158	0	16	0	-1
158	0	19	-9	-4
158	-1	23	10	-10
157	1	23	47	-4
158	1	19	33	0
157	1	19	-2	-4
157	1	17	37	-9
157	12	21	66	-8
158	19	18	26	2
158	17	19	-56	12
157	4	20	-31	1
158	-6	21	51	-14
158	-6	22	22	-6
157	-2	12	-17	-1
158	10	12	-78	5
157	11	22	-25	4
158	7	23	22	4
158	8	24	-25	6
158	3	19	8	7
158	3	14	-21	14
157	3	16	-10	15
157	1	17	3	7
157	3	19	-20	14
158	4	18	0	21
158	3	16	37	19
158	4	21	83	10
158	5	17	75	-6
157	4	12	40	-5
158	7	9	-53	1
157	4	10	-27	-8
158	-9	18	68	-22
157	-24	19	29	-16
157	-15	18	4	-8
158	4	12	-26	-18
157	8	15	-52	-17
158	12	18	-33	4
157	17	17	16	0
157	23	22	15	4
157	30	24	-8	18
157	24	25	28	21
158	16	21	29	14
159	16	23	40	-3
158	20	23	53	-4
158	15	20	43	1
157	3	22	6	4
158	3	22	-13	2
158	5	15	9	-3
158	0	16	10	-8
158	-1	19	7	-3
158	3	21	0	-2
157	2	18	-2	-5
158	-1	15	-7	1
158	-1	19	-7	-4
157	0	19	3	5
158	1	18	10	8
158	3	15	23	11
157	4	15	36	16
157	4	19	51	12
157	5	21	39	14
158	-3	18	17	16
157	-12	10	-25	18
157	-16	11	-47	12
159	-10	18	38	7
158	-3	28	75	-1
159	3	18	-19	-3
158	8	11	-124	4
158	16	23	-95	6
157	25	19	27	3
158	22	18	5	3
158	15	23	-3	-1
157	12	18	19	2
157	12	20	-5	4
158	8	19	33	6
157	3	19	34	13
157	3	22	16	-1
158	3	21	-24	-25
157	4	22	-4	-39
158	3	15	34	-52
157	4	17	58	-53
158	3	20	45	-30
157	4	15	6	-10
157	5	16	37	-4
158	3	15	36	4
157	0	13	22	16
158	1	12	10	21
158	1	13	18	15
157	9	19	9	8
158	13	22	-15	20
158	14	18	10	27
157	5	21	22	25
157	-3	18	15	17
157	-1	13	-49	14
157	-2	12	-41	4
157	-2	16	38	-17
157	4	21	31	-21
158	5	22	36	-18
158	-2	22	25	-4
157	-2	24	-47	-2
158	8	27	-7	9
157	19	20	16	10
158	13	19	-54	-3
157	7	24	-70	3
158	6	19	-24	-2
157	1	13	25	4
157	3	13	52	11
157	4	11	64	12
158	5	17	46	9
158	3	20	34	2
157	3	18	8	16
157	4	14	-19	15
157	7	15	-23	4
157	5	22	-29	-1
157	5	15	-10	7
158	7	18	1	-1
157	3	18	4	0
157	5	21	7	0
158	5	24	10	0
157	5	21	9	6
158	6	21	10	4
157	5	15	6	8
157	5	15	6	9
157	6	15	28	11
157	5	15	26	10
157	1	13	8	13
158	-1	17	-10	-2
157	0	22	-16	-9
158	-8	17	-8	-4
158	-14	20	2	-13
157	-5	23	-2	-12
157	5	24	1	-10
157	16	23	15	-4
158	17	22	46	-1
157	20	19	66	-1
157	28	15	-2	0
158	23	22	-22	1
157	14	16	42	-2
157	13	17	40	-8
157	14	21	6	-1
158	-4	15	-27	1
158	-27	19	-24	9
158	-25	15	12	23
157	-4	15	-3	13
158	8	18	7	9
157	9	13	8	10
157	6	15	12	7
158	17	16	16	-2
158	30	15	2	-2
158	28	15	-14	5
157	15	24	-30	-10
157	5	23	0	-14
158	6	24	-2	-17
158	4	25	10	-21
157	5	23	31	-17
158	0	21	36	-20
158	-1	15	32	-11
158	-2	15	11	-6
158	-3	19	17	-5
158	-2	19	8	3
158	-1	16	19	6
158	0	16	36	6
158	-3	18	31	5
159	-1	17	17	4
158	-1	19	-8	4
158	1	22	-12	17
158	1	19	10	20
158	1	19	16	8
157	3	17	31	2
157	1	10	44	10
158	0	10	-24	15
157	3	15	-58	8
157	7	13	0	-6
157	4	18	12	-9
157	7	20	-27	0
158	2	19	-11	-12
158	-1	25	8	-6
158	11	25	13	0
158	18	21	30	2
158	13	16	2	6
157	10	17	-39	4
157	18	21	-20	2
158	12	19	17	7
157	10	22	4	12
158	13	21	-2	14
158	5	22	-12	14
158	2	20	1	7
158	-3	19	36	4
157	0	19	43	4
157	-1	15	36	4
158	-2	13	24	2
157	1	17	21	-7
158	4	18	22	-5
158	5	19	72	-1
159	5	22	65	0
157	7	11	-40	4
157	4	11	-66	3
158	4	16	10	-15
158	6	22	5	-19
157	6	25	-10	-14
158	2	17	-35	-9
157	5	13	-57	0
157	9	16	3	-4
158	7	19	-28	-8
157	8	22	-30	-4
158	7	23	-6	6
157	4	10	9	17
158	-1	9	43	13
157	-10	13	41	9
158	-9	14	53	10
157	-1	17	85	10
158	0	14	58	4
157	4	17	6	0
158	7	19	6	6
157	19	18	17	2
158	26	25	25	2
157	19	29	19	-2
158	20	24	13	-2
157	20	16	1	-2
158	17	19	-16	-1
158	8	18	-15	8
157	5	15	-28	12
158	4	15	-12	4
158	1	19	0	9
157	5	26	10	13
157	2	21	24	12
158	0	21	6	6
158	-2	18	0	-9
157	-1	17	-1	-13
159	1	18	-9	-16
158	2	16	-24	-8
158	1	19	-8	-7
158	0	16	8	-11
158	0	15	42	-2
157	0	19	84	-3
157	3	17	26	0
157	6	17	-81	6
158	7	20	-56	6
158	5	16	18	4
157	3	12	-16	6
158	2	20	-11	4
157	1	25	-6	4
158	-1	22	-6	8
157	-18	23	21	12
158	-21	19	22	13
157	-3	11	38	7
157	3	1	32	2
158	13	8	13	-22
158	26	21	-15	-24
158	29	21	6	-17
158	29	24	19	-12
158	20	23	2	2
158	12	23	15	-1
158	14	21	33	4
158	16	23	72	4
157	9	22	49	3
158	7	16	-46	6
157	0	21	-50	6
157	-1	14	29	5
158	-1	15	7	7
157	-1	19	2	6
157	1	18	17	3
157	2	19	6	1
157	1	17	24	-3
159	2	16	17	5
158	5	17	16	8
157	10	15	-21	14
158	4	20	-34	11
158	-3	19	-3	7
157	-5	14	0	-1
157	-9	18	21	-9
157	-6	17	37	4
158	7	12	53	9
158	14	18	63	0
157	5	20	2	2
157	5	17	-55	6
158	13	19	-49	4
157	8	22	-51	7
157	3	18	-44	10
157	2	14	-45	2
158	1	14	-8	-8
158	3	21	58	-14
158	5	26	51	-9
157	7	24	61	-5
158	3	26	68	0
157	2	23	47	3
158	3	15	28	6
157	5	13	22	6
158	7	15	31	3
158	6	17	-9	7
158	-4	17	-23	3
158	-8	16	-1	2
157	-4	17	-1	-3
157	-1	16	8	-2
158	5	12	19	4
158	9	15	30	11
158	18	17	24	0
158	26	20	0	1
157	20	21	-8	-3
158	11	19	-32	-5
157	10	19	-28	3
158	9	24	-9	4
157	8	23	-11	7
158	9	21	-10	2
157	10	19	-22	3
157	8	18	-3	-4
157	5	17	38	-10
157	1	14	67	-16
158	1	13	77	-10
157	-1	14	23	5
158	4	21	-38	9
158	6	23	-16	8
158	3	15	19	7
159	5	17	5	0
157	4	21	8	-2
157	-1	17	-3	9
158	0	14	-29	4
159	1	18	-34	-2
158	3	22	-3	-7
157	4	19	30	-4
157	3	19	38	-1
157	0	14	-5	-6
157	5	17	-72	2
158	4	21	10	-3
157	3	13	41	4
157	6	12	19	13
157	6	13	43	0
157	4	20	24	3
157	4	23	25	5
158	6	22	1	4
157	4	15	13	11
158	4	10	2	2
157	2	20	-27	5
158	1	15	-11	9
157	0	17	-23	7
157	-14	17	-46	7
158	-25	22	-19	-1
157	-12	23	7	-1
158	7	18	4	-4
157	8	19	42	0
157	9	21	31	8
157	16	19	24	0
158	30	24	14	0
157	40	27	-16	0
158	24	24	-23	-1
159	15	21	-3	-1
158	18	17	37	-4
159	11	16	41	-14
158	3	13	19	-9
157	8	11	-12	-4
158	14	19	13	-7
158	10	19	38	-6
158	0	22	61	-9
157	-7	23	67	7
158	-2	14	13	20
158	4	15	6	11
157	0	15	33	0
158	0	15	22	6
157	0	14	9	15
157	-2	14	2	24
157	-1	15	11	27
157	1	15	17	9
158	2	17	-1	-12
158	3	21	-19	-17
157	3	17	-22	-10
157	2	17	-29	-14
158	4	19	-64	-7
157	5	15	-43	-5
159	9	17	29	-6
157	12	19	40	-5
158	8	17	10	0
157	1	19	-8	2
158	-3	20	-13	-1
157	-7	16	-7	5
157	-3	18	28	2
157	5	19	72	-1
157	6	15	73	-4
158	-5	16	37	-2
157	-9	21	15	3
158	-4	19	-8	10
158	-1	17	-14	9
157	5	18	-2	8
158	6	18	-12	9
158	14	18	-6	6
157	26	21	4	7
157	22	22	31	3
158	15	18	37	4
158	9	15	-31	11
157	15	25	-58	11
157	10	24	30	-2
158	3	17	60	-1
157	3	19	-10	2
158	4	22	-65	-4
158	8	23	-19	-2
158	3	23	10	-4
157	5	19	-14	7
158	3	15	4	14
157	4	10	-23	19
157	3	13	6	8
157	1	16	9	-7
157	1	18	-9	-2
158	-1	19	13	-4
157	2	18	14	-13
157	1	13	33	-8
157	3	17	13	-6
157	3	22	1	-4
158	-1	17	-8	-1
157	1	22	5	-1
157	7	24	31	3
157	11	19	34	1
158	10	19	24	5
157	11	15	14	8
158	8	17	1	-1
158	7	23	1	3
158	6	20	17	9
158	4	22	-2	-5
157	5	23	-6	-15
157	5	21	10	-16
157	5	19	52	-2
157	3	17	77	3
157	1	17	25	8
158	5	11	-6	10
158	3	11	16	-3
158	3	19	12	0
158	7	18	6	-1
157	5	11	6	-7
157	7	15	-3	-5
158	10	19	5	-6
158	8	19	-4	-5
157	7	19	-4	-4
157	5	19	3	-4
157	5	21	21	-3
157	5	17	23	2
157	7	11	-10	0
158	5	8	-31	0
158	5	17	-10	7
158	3	17	39	7
157	1	15	27	8
158	-4	11	-18	13
158	-3	12	-14	4
158	-3	18	19	0
157	-1	17	32	9
157	1	20	24	7
157	14	24	8	1
157	20	23	-26	9
157	18	19	-49	10
157	15	19	-30	6
158	-2	23	12	9
158	-28	19	37	2
157	-35	18	2	-2
157	-13	21	-19	-2
158	12	16	25	-1
158	17	18	-1	-4
158	30	22	9	-15
158	36	23	21	-14
158	37	25	-3	-4
158	40	21	13	1
158	23	19	24	4
157	16	18	80	6
157	13	13	43	2
157	5	13	-70	10
158	4	17	-67	14
157	-4	14	38	2
158	-4	14	54	5
158	-1	14	37	2
157	-1	19	-23	0
158	0	26	-55	7
157	0	15	22	1
157	-1	20	7	1
157	-2	21	10	2
157	-4	11	2	3
157	-4	15	-8	-5
157	-4	17	6	-6
157	-2	17	-1	9
158	-1	18	18	12
157	3	15	-6	11
157	3	18	-7	8
158	2	22	-19	0
157	1	19	-30	-7
157	0	23	-15	-4
158	1	19	9	-12
158	0	16	31	-10
158	3	19	56	-7
157	7	17	99	-2
157	5	24	78	1
157	7	26	43	-7
158	10	18	4	-3
157	10	17	-32	5
158	10	22	-6	10
158	9	17	31	3
157	6	15	48	9
157	2	13	54	7
158	3	14	29	4
157	4	17	8	9
157	5	17	1	3
157	5	19	-5	-3
158	2	19	-5	-1
157	4	17	-7	-4
158	3	19	5	-1
158	1	17	-5	11
158	6	15	-28	16
157	9	24	-35	16
157	13	19	-25	14
158	12	19	-10	4
157	6	17	-7	-6
157	2	12	4	-4
158	3	17	7	-3
157	5	19	2	-3
158	5	17	6	2
158	4	12	8	8
158	5	17	6	-4
158	1	18	17	-6
159	4	18	33	-16
157	5	19	25	-26
158	3	21	-30	-20
157	1	26	-25	-17
157	6	25	32	-4
158	9	21	34	9
158	5	12	9	14
157	8	5	-3	14
157	9	12	-1	11
158	6	15	-2	5
157	7	15	-20	9
157	9	19	-42	12
157	11	22	-22	4
157	5	17	-19	0
158	4	19	-12	-4
157	3	21	35	-1
158	1	24	17	2
157	2	22	23	5
157	0	17	57	9
157	0	12	45	4
158	4	14	-27	-4
157	6	23	-57	-2
158	3	22	40	-14
157	3	23	45	-6
157	1	17	37	6
158	2	14	3	15
157	4	17	-26	17
158	-2	19	36	6
157	11	19	34	6
157	22	17	71	-1
158	5	21	8	-5
158	-6	23	-86	6
158	-3	18	-57	6
157	-6	12	-31	3
157	-2	17	-10	-2
157	7	19	8	-13
157	21	16	50	-5
158	28	17	55	-2
157	20	19	23	-4
158	12	23	24	-10
158	8	16	27	-8
159	11	19	13	2
157	6	21	-1	4
158	3	19	15	7
157	4	18	27	3
158	2	13	9	8
157	2	9	-1	14
157	0	14	1	8
157	0	15	4	9
156	3	16	2	3
158	5	19	8	4
158	3	20	15	7
157	3	23	17	-2
158	2	20	14	0
158	5	17	22	-1
158	4	14	33	4
158	0	11	20	2
157	-3	14	26	-5
158	-1	14	17	-4
157	2	19	-33	-14
158	5	22	-33	-9
158	8	23	-2	-8
159	10	26	3	-8
158	4	24	0	-4
158	4	16	-26	-6
157	7	16	-31	3
159	5	22	11	3
157	5	15	24	1
157	7	20	14	9
158	4	23	15	5
158	2	19	4	4
157	1	21	-5	9
158	3	18	17	8
157	3	14	26	-1
158	6	20	32	-8
158	7	20	32	-10
158	4	18	0	-5
158	7	22	-15	4
158	5	19	-5	6
157	5	19	12	2
158	7	22	36	6
158	6	18	53	2
157	4	18	-7	1
158	6	21	-59	16
157	7	13	-30	11
158	3	10	-41	0
158	5	17	-31	-4
157	3	17	10	1
157	4	22	16	7
157	9	19	37	10
158	8	13	4	7
158	8	19	-7	-7
158	3	18	19	4
158	3	17	8	16
158	2	19	-13	4
157	3	14	-4	-2
157	3	17	37	-8
158	1	13	51	-6
158	0	12	22	-8
158	2	19	28	-8
157	4	15	27	-4
157	4	21	-12	2
158	5	24	-10	3
157	10	23	56	6
157	10	17	117	7
158	5	12	27	9
158	9	22	-73	9
158	15	29	-27	-4
158	7	23	10	-5
158	7	19	-6	-4
157	3	14	11	6
157	1	11	24	10
158	-2	19	38	8
158	1	21	24	-2
158	0	17	-23	-6
157	-2	17	-32	-1
158	-1	22	-2	-2
158	11	21	20	10
157	16	13	4	9
157	5	15	-34	11
157	7	21	-41	9
158	8	18	4	-2
158	3	13	-4	-1
157	5	14	-9	-5
157	3	21	12	-9
157	5	21	5	-1
157	5	16	15	11
157	3	13	31	4
158	0	15	51	-5
158	-10	15	43	9
157	-27	7	13	13
157	-37	12	-34	12
158	-16	13	-27	9
158	4	13	9	-2
157	11	17	-9	-2
158	32	19	-4	-6
158	39	24	-2	-9
158	42	24	7	-9
158	44	26	10	-2
158	35	25	-3	-4
157	25	22	8	-8
158	14	26	37	-7
157	3	22	78	-14
158	-2	18	39	-8
158	0	19	-34	7
158	1	22	-4	-4
158	-3	19	41	-7
158	-1	19	-10	3
158	0	22	-19	4
157	-3	22	23	7
157	1	15	2	11
158	1	13	-28	9
158	-1	19	10	10
158	0	17	20	9
157	-4	17	0	4
158	-1	19	3	9
157	0	21	-7	7
158	-1	22	4	3
158	2	18	-1	3
158	4	21	4	0
158	5	19	13	-1
158	3	17	27	4
157	3	17	52	16
158	4	18	56	12
158	5	19	40	7
158	5	13	4	-2
158	7	12	-32	-35
158	3	17	-48	-25
157	3	17	-15	-1
158	7	18	12	-6
157	7	19	64	-3
158	7	15	54	-6
158	4	13	-62	5
157	9	16	-51	6
157	7	14	5	2
157	7	15	-2	9
157	9	19	9	4
157	8	17	18	5
158	5	18	19	0
158	2	18	8	3
158	2	15	-4	14
158	3	17	-1	11
158	4	21	-1	10
158	5	18	1	7
158	5	19	3	2
157	5	15	29	-1
158	4	12	51	1
158	3	15	30	-1
158	4	21	0	-2
157	8	24	-9	0
158	7	20	7	1
158	4	18	-16	6
157	5	18	-12	-3
158	7	15	-1	-4
157	8	17	-28	7
158	8	24	0	5
157	3	21	28	7
157	1	17	45	0
158	2	15	28	0
158	4	14	29	4
158	2	16	61	0
158	5	15	35	3
158	5	20	19	1
157	7	21	-11	3
158	8	24	-7	3
157	1	24	16	2
157	7	22	-6	3
158	17	22	6	-1
158	20	24	-2	-12
158	8	23	-9	-11
157	0	16	-3	3
158	-8	18	-11	7
158	-8	21	-5	8
157	-3	21	-2	8
158	0	18	0	4
158	8	14	10	-2
157	13	18	45	2
158	24	19	38	-2
158	26	16	-56	-4
158	17	18	-92	1
157	11	19	0	-7
158	5	17	19	-8
157	9	24	14	-6
157	3	19	52	-10
157	1	20	23	-3
157	0	19	21	2
157	1	15	27	4
157	-2	18	36	7
157	-2	17	37	4
157	0	18	27	0
158	-2	17	28	-5
157	0	18	9	1
158	0	14	-7	4
157	1	16	-20	7
158	7	16	5	0
158	5	21	-4	-2
157	2	19	-33	-1
157	5	12	-57	0
158	5	16	-59	9
158	1	14	-8	5
157	1	17	2	9
157	1	21	41	6
157	1	17	81	6
158	4	12	29	9
157	10	11	-43	3
157	15	17	-40	-13
158	9	21	10	-12
157	0	20	8	4
158	1	16	21	6
157	-4	18	11	6
157	-5	22	-3	3
157	-3	20	-12	8
157	4	22	-10	6
157	7	21	43	7
158	3	21	36	14
157	3	14	-24	19
158	-1	9	-25	9
158	3	17	13	-16
157	12	23	26	-13
159	14	19	48	-10
158	9	17	48	-4
158	5	19	24	2
158	5	20	33	-7
158	3	19	20	-2
157	6	21	4	2
157	5	19	1	4
158	2	18	-9	8
157	6	14	29	9
157	3	15	53	-2
157	7	19	22	-10
158	7	21	4	-13
157	8	21	-1	-13
157	8	20	-4	-12
157	7	17	-3	-6
158	8	17	-3	6
157	7	17	-12	7
157	7	15	-12	10
158	5	17	1	4
158	4	17	8	9
157	5	22	31	4
158	3	19	47	-4
157	3	15	0	3
157	3	19	-53	8
158	7	17	-4	2
157	3	14	25	0
157	3	16	-11	2
158	2	15	8	4
158	2	19	4	7
158	0	21	16	8
157	6	19	19	11
158	20	21	4	8
157	16	16	6	5
158	6	16	-16	11
157	5	20	-10	13
157	4	19	4	10
157	7	21	28	3
157	5	22	57	8
157	4	16	13	7
158	8	20	-59	4
157	1	21	-4	-6
158	-9	18	48	-13
158	-9	17	51	-11
158	-6	11	64	-9
158	-2	13	1	-9
158	3	15	-28	-6
158	8	17	-51	2
157	17	18	-50	-19
158	25	26	-15	-20
157	19	23	-5	4
157	13	16	10	4
158	15	16	37	10
157	14	14	51	7
158	5	20	24	10
157	8	19	12	12
157	0	18	6	10
157	-15	20	-42	12
157	-25	19	-59	7
158	-7	17	-26	8
157	6	20	-4	-1
157	8	21	14	-4
158	15	18	27	-7
158	15	18	28	-7
157	23	17	34	-12
158	23	16	47	-15
158	15	18	43	-13
157	10	17	35	-14
157	11	16	22	-5
158	9	19	13	6
157	5	21	20	15
157	4	22	18	19
157	-2	17	0	23
158	-3	10	-18	12
157	-6	14	-4	3
157	-1	19	26	2
157	0	22	53	-5
158	2	22	1	0
158	1	22	-73	9
157	-2	18	-27	2
157	-1	16	-27	-5
158	2	23	-28	-3
158	5	21	31	0
158	4	18	4	4
158	8	17	-20	6
157	4	13	-7	4
158	3	14	0	9
157	3	18	-12	-8
157	2	21	-14	-15
157	6	17	23	5
157	5	17	63	2
157	5	19	70	10
157	5	19	43	9
158	6	22	35	3
158	6	22	21	8
157	6	14	3	3
157	4	14	-20	4
158	1	21	-20	0
157	8	18	6	2
157	7	19	4	7
157	5	17	1	2
157	5	19	-3	3
158	9	21	5	-6
158	11	21	9	-15
157	14	19	-2	-10
158	12	15	1	-4
157	4	17	-2	-7
158	2	19	4	-4
158	-2	17	8	3
158	-3	16	27	7
157	4	20	47	11
157	6	21	53	3
158	2	19	42	-5
158	1	15	6	7
158	3	19	5	11
157	1	19	53	0
157	-1	14	-16	0
157	4	20	-87	7
158	15	21	-3	3
158	18	16	8	-5
157	11	18	-18	2
157	8	17	0	0
158	10	16	8	-6
158	5	19	7	-2
157	7	21	0	4
158	6	23	5	5
157	1	22	4	9
157	2	21	14	11
158	3	24	33	8
157	4	19	33	7
157	2	8	8	4
157	3	4	11	-8
157	-1	14	24	-5
158	1	19	-31	0
157	7	17	-65	-2
158	1	17	-25	4
157	-6	14	23	3
157	-13	13	28	-3
157	-6	15	0	-5
157	-3	21	-6	-1
158	3	19	15	-2
158	16	18	3	0
157	22	20	8	2
158	29	19	16	4
158	24	20	13	5
157	13	22	13	2
157	8	18	11	4
157	14	17	32	0
158	13	20	27	6
157	5	17	-5	6
158	3	17	-5	7
158	-2	17	8	4
158	-3	16	8	-2
159	-4	19	22	-2
157	0	19	22	-1
157	-2	18	9	-4
158	1	18	14	-1
158	2	18	21	0
158	4	12	32	-3
158	12	13	-17	-10
158	16	22	-56	-9
158	16	28	14	-8
157	0	26	40	-5
158	-1	19	10	10
158	1	11	15	14
157	0	12	19	6
157	3	17	27	-10
157	3	21	32	0
157	4	17	14	2
158	0	13	-1	5
157	4	17	-5	6
158	4	16	-20	2
157	3	19	-25	6
158	3	20	-2	-4
157	3	21	-8	-1
157	4	22	1	2
157	4	24	18	4
158	9	22	2	4
157	5	21	13	4
158	4	18	20	6
158	2	14	21	9
157	3	19	16	10
157	4	18	1	7
157	4	24	3	2
157	8	24	2	2
158	7	17	5	4
158	9	19	21	-1
157	9	16	14	-6
158	5	15	10	-5
158	5	20	14	-6
157	5	19	21	-3
158	5	17	47	3
158	7	16	27	2
158	7	17	-66	3
158	7	22	-62	-2
158	3	15	27	-15
157	4	14	21	-13
157	7	22	5	-13
157	8	18	-2	-6
157	5	17	7	0
158	8	19	32	7
157	8	16	31	14
158	5	16	38	9
158	7	17	-11	8
158	5	15	-50	8
158	7	17	-26	7
157	5	19	0	1
157	5	20	16	3
157	5	23	39	2
158	4	22	44	-9
158	3	14	-11	-12
157	3	11	-60	-12
157	1	12	-40	-5
157	1	15	-24	2
158	5	22	-19	5
158	3	19	8	14
157	3	14	19	12
158	-1	15	20	12
158	-3	15	19	4
157	5	17	25	-6
158	23	21	35	2
158	23	17	24	0
158	5	21	5	2
157	0	17	16	0
157	-3	17	33	2
157	-3	22	24	5
157	6	23	20	6
157	9	22	26	12
157	8	23	33	10
157	5	26	37	13
158	2	25	39	4
158	0	19	28	-5
157	1	13	8	-9
158	3	11	-30	-4
157	7	22	-53	-2
158	9	18	-22	-4
158	1	14	-8	-6
158	5	17	11	-8
158	2	18	54	-6
157	4	19	20	-7
158	7	21	-44	0
158	7	22	-17	-10
157	5	17	26	0
157	4	18	-2	9
158	3	17	10	7
158	3	15	15	12
157	7	16	24	15
158	3	15	32	11
158	3	17	4	6
158	2	17	-10	7
158	0	19	-10	4
157	-4	16	2	8
157	-16	14	-3	-1
158	-13	18	3	2
158	-4	19	10	-5
157	2	19	23	-5
157	12	19	31	3
158	17	19	6	7
157	27	17	-17	8
158	26	19	4	4
158	19	17	27	4
157	11	17	-23	-14
158	8	22	-29	-6
158	10	18	3	2
158	8	19	-7	-4
159	5	18	10	0
157	2	15	24	0
158	3	18	50	-2
158	3	16	49	5
158	6	17	23	4
157	8	18	12	1
157	9	19	-10	9
157	5	17	20	-2
158	0	17	60	-8
158	0	14	8	-8
158	3	16	-73	0
158	5	24	-35	0
158	0	26	25	-4
157	2	24	-4	1
158	6	13	-19	7
157	6	7	-43	3
157	3	11	-10	-7
157	-2	12	7	-2
157	9	14	1	-7
157	17	17	28	-7
157	13	15	17	-1
157	4	22	19	-2
157	0	25	12	-7
157	3	22	17	-1
158	1	16	13	2
157	3	17	4	-1
158	2	17	12	-1
157	1	18	10	-12
158	2	18	19	-14
157	1	20	17	-8
157	2	21	17	4
157	3	21	31	12
157	3	23	39	16
158	0	22	35	16
158	1	22	24	15
157	10	14	10	16
157	17	14	16	6
157	13	24	30	8
157	5	16	-11	11
157	7	17	-77	7
157	9	19	-69	2
157	7	19	-14	0
157	4	17	-14	3
157	8	22	-11	-8
158	6	21	4	-2
158	4	17	-9	7
158	3	21	28	-1
158	5	18	61	3
157	6	19	43	2
158	3	22	26	-1
158	5	24	13	6
158	4	18	13	8
157	6	17	7	11
158	5	18	5	7
158	3	17	12	-4
158	5	17	13	-12
158	5	17	15	-4
158	8	19	12	1
158	8	16	14	1
158	3	17	21	4
158	1	17	23	6
158	1	22	19	9
157	3	25	1	14
158	8	19	-14	4
158	10	17	-29	-4
158	7	13	-4	3
157	1	13	27	2
158	-1	16	-23	4
158	-1	24	-38	7
157	-2	22	-3	-1
158	-1	15	24	-1
157	8	17	38	-5
157	9	18	28	-8
157	4	21	3	-8
157	3	17	10	-11
157	3	17	19	-6
157	7	15	5	-5
158	8	14	8	-9
157	5	19	8	-1
158	2	14	21	6
157	4	14	-11	2
158	4	18	-46	1
159	5	20	3	-3
157	8	21	32	0
157	7	20	57	11
157	5	15	64	6
158	7	16	-32	3
158	9	15	-60	10
156	7	6	10	4
157	4	13	0	3
157	9	20	-4	2
157	3	18	19	0
158	5	25	34	2
158	5	17	61	5
158	5	10	12	12
157	-1	10	-15	8
158	-11	16	-15	1
157	-7	22	-19	9
158	-6	17	2	6
158	-1	17	9	8
158	5	17	5	6
158	12	17	-6	2
157	24	19	-20	3
157	25	23	-20	-3
157	17	21	6	-6
158	6	22	19	-13
157	6	20	25	-17
157	12	15	21	-18
157	12	17	14	-15
157	3	15	29	-10
157	1	20	21	-1
157	2	23	12	0
157	9	23	9	-1
158	15	21	15	7
157	17	25	19	4
157	10	26	8	4
158	-3	24	5	16
157	-2	24	9	16
157	0	21	8	15
158	-1	17	1	14
157	0	14	-1	3
157	-2	17	-1	0
158	0	21	12	7
158	3	14	24	6
157	3	14	43	13
158	1	15	36	14
158	3	13	-35	15
158	0	15	-73	10
157	0	14	-25	-4
158	2	12	15	-18
158	3	16	-4	-19
158	4	15	-2	-14
158	4	23	22	-16
158	3	25	40	-14
158	6	19	34	-11
158	5	22	30	-3
158	5	17	4	-4
157	7	17	-17	0
158	6	18	2	2
157	5	20	-4	7
157	7	19	15	9
157	8	18	38	6
157	8	18	3	8
158	4	18	4	2
157	4	21	7	-5
157	7	17	-27	1
158	3	14	-47	6
157	3	19	-19	-1
157	5	24	0	-2
157	4	21	-7	6
158	5	16	13	12
158	5	14	16	4
157	6	19	12	-1
157	3	19	19	0
158	5	17	37	-4
158	9	19	57	-2
158	7	20	49	-1
159	4	26	54	0
157	3	24	77	3
157	5	17	38	3
158	10	10	-55	9
158	7	10	-18	-6
158	2	10	37	-14
157	3	17	-67	3
158	9	24	-41	-3
158	5	17	1	-3
157	7	21	-26	4
159	7	17	2	13
158	7	17	-10	29
159	4	21	15	26
158	5	17	16	18
158	12	17	9	8
158	5	14	9	-1
158	5	22	10	-6
158	8	19	52	1
158	10	16	27	-1
158	14	19	2	1
158	10	19	-25	7
157	7	22	-49	7
157	3	22	12	8
157	-4	17	61	8
158	-1	17	49	5
158	3	22	30	-10
157	5	24	-12	-18
157	3	15	-27	-17
157	1	19	-8	-5
157	-2	18	-8	1
158	-12	11	8	6
158	-17	7	12	9
158	-12	11	-2	-4
158	-5	22	-17	-6
158	1	20	-23	1
159	9	17	-4	-1
158	16	19	10	3
158	29	20	17	4
158	31	23	25	-1
157	24	22	43	4
157	14	16	43	8
157	15	15	26	2
158	11	20	14	2
158	7	21	11	-5
158	3	21	10	-8
158	1	17	-7	-4
157	2	15	-21	-4
157	3	15	6	-5
157	-4	15	25	-7
157	-4	17	-18	1
157	3	15	-27	0
158	0	15	2	-5
157	-4	19	19	-11
158	4	24	21	-8
157	13	18	33	0
158	13	19	19	3
157	1	21	-7	7
158	2	20	-3	4
158	1	19	12	2
157	2	15	33	-7
157	8	17	20	-2
158	6	15	-9	-1
157	7	13	-17	-5
158	5	15	12	3
157	9	20	49	3
157	7	22	40	6
158	5	24	24	11
157	6	16	-16	12
157	7	14	-32	5
158	5	17	2	4
157	2	10	8	0
158	6	13	14	2
157	4	17	26	-2
158	3	25	47	-17
158	3	19	22	-5
158	3	22	-69	2
158	5	24	-21	13
158	3	16	71	13
158	3	13	-2	23
157	8	15	-64	28
158	5	17	-32	10
158	0	16	0	7
157	11	19	-16	2
158	19	22	-14	-2
158	14	21	0	0
157	5	24	-8	2
158	0	26	6	4
158	0	22	6	8
158	0	14	9	4
159	4	13	-1	-2
157	4	18	10	-4
158	3	22	70	-7
157	5	16	103	-10
157	4	21	70	-6
157	7	25	29	0
158	7	15	9	-4
157	6	12	-42	6
158	5	12	-55	4
157	3	11	-12	-2
158	4	15	-15	2
158	5	19	6	2
159	7	19	41	3
157	7	18	27	-2
158	4	18	18	-8
158	2	17	27	-5
157	4	18	8	4
157	5	18	-10	10
158	5	20	-11	9
157	3	18	-2	0
158	-1	18	5	-14
157	5	22	-19	-11
158	6	21	-20	-13
157	5	21	-5	-10
158	7	19	10	-12
158	2	18	10	-12
158	-7	17	9	-3
158	-10	19	7	-1
158	-1	17	8	2
158	4	17	19	7
157	4	15	18	7
158	6	15	20	7
157	3	16	17	11
157	17	19	21	10
157	26	23	30	6
158	22	24	29	4
157	16	19	23	11
157	10	21	-12	11
158	5	22	-33	14
158	2	23	-9	15
158	2	18	-4	16
157	0	15	-5	18
157	3	17	1	11
157	5	18	14	9
157	8	19	39	-5
157	2	16	34	-8
158	-1	12	6	-4
159	0	5	-27	-2
158	-1	9	-27	-5
158	0	17	33	-6
158	-3	19	58	0
158	3	22	10	1
158	15	23	32	7
158	17	23	68	-2
158	5	21	-7	-2
158	7	18	-97	-7
158	7	18	-40	-11
158	2	16	1	0
158	3	22	-18	3
157	2	17	24	0
157	5	15	11	-1
157	4	18	7	2
158	4	18	14	-2
158	7	20	30	-2
158	8	16	42	-1
157	5	18	19	1
157	3	19	-3	-2
158	7	23	-28	2
157	3	19	-3	1
158	3	15	4	-1
157	2	18	6	10
158	3	19	11	6
158	3	19	-3	-2
157	4	23	2	-2
157	1	22	21	7
158	0	15	41	21
158	2	17	26	16
157	4	19	26	-1
158	4	16	-40	19
158	5	17	-100	13
157	1	16	-51	-11
158	2	17	-74	-2
157	7	22	-11	-1
158	5	18	63	-5
157	4	19	58	-14
158	5	18	103	-19
157	6	15	83	-15
157	1	19	51	-6
158	3	15	47	-1
157	8	19	35	4
158	8	19	20	1
157	9	15	19	0
158	5	11	-2	-14
157	8	20	-39	-24
158	8	23	-8	-4
157	8	14	12	9
158	4	21	-3	26
159	6	15	5	26
157	4	16	4	15
157	1	16	-13	21
158	4	15	-15	12
157	4	18	-12	9
158	5	19	-11	4
157	9	25	8	-6
157	3	22	16	-15
157	-14	18	6	-19
157	-24	22	8	-15
157	1	22	8	-10
157	14	13	3	-8
157	11	14	7	-8
157	12	20	17	-3
157	8	22	16	-2
158	26	23	20	3
157	37	19	26	8
158	30	22	17	10
157	12	25	5	9
158	3	22	-2	10
157	6	20	12	8
157	4	18	1	6
157	3	18	-72	15
158	1	20	-89	11
158	-1	14	0	7
158	-12	11	-8	8
157	-14	15	0	-2
157	-12	13	64	-3
158	-5	15	39	-5
158	0	17	32	-5
157	6	19	12	-6
158	14	18	21	2
158	22	16	7	12
158	24	18	25	14
158	17	18	48	14
158	13	17	8	16
157	11	17	24	19
158	7	17	12	17
157	4	19	17	11
157	2	23	10	0
158	1	23	-35	-9
158	-1	15	-27	-27
157	-3	13	2	-28
157	-2	19	36	-15
158	-2	19	54	-15
157	-2	10	-3	-12
158	0	9	-83	-11
157	2	19	-32	-9
157	0	19	24	-4
158	-2	19	-6	2
157	7	23	-6	10
158	15	18	8	-1
158	10	27	21	-2
157	4	16	7	8
157	6	10	-22	10
157	4	15	-10	6
157	2	18	23	0
157	3	15	34	4
157	1	17	30	6
158	4	18	18	6
158	3	15	6	5
157	5	18	6	7
157	3	18	-3	12
157	1	20	-1	11
158	5	23	1	13
158	5	19	6	10
157	7	18	34	14
158	5	11	46	4
157	5	17	26	-6
157	4	25	4	-1
157	5	19	6	1
158	8	19	9	0
158	8	22	1	1
157	7	23	4	2
158	4	21	1	2
157	8	19	-3	-5
158	5	18	7	-15
157	8	17	20	-8
158	8	21	41	-2
157	5	19	41	-2
158	4	9	38	8
158	3	5	32	7
157	1	9	13	-2
158	5	19	-26	3
159	5	20	-40	5
157	5	21	9	5
157	5	20	-12	2
158	4	21	-19	-4
157	5	22	23	-7
158	8	26	24	-9
157	6	19	7	-6
158	8	15	-14	3
158	5	14	2	5
157	5	13	-3	0
158	7	18	-3	0
158	9	16	2	-4
157	8	22	0	-7
157	10	21	-1	-10
158	5	19	-22	-8
158	3	19	-14	-4
158	1	15	9	13
158	3	15	33	13
157	6	14	64	3
157	1	17	82	9
158	2	14	30	6
157	5	14	-39	6
158	5	18	-9	3
157	3	18	20	-4
157	5	24	-7	0
158	8	23	-6	-1
157	2	17	-43	3
158	5	22	-35	3
158	3	24	47	7
157	5	19	24	10
158	11	13	-12	9
158	16	19	0	7
157	10	25	1	13
157	1	19	20	21
158	-2	17	27	12
157	-8	11	23	7
158	-3	14	25	-1
158	0	25	9	-17
157	0	22	-5	-20
158	1	18	-27	-26
158	-3	23	-54	-19
157	9	24	-21	-10
157	22	18	15	1
158	24	19	11	14
158	7	19	50	12
157	1	16	59	4
157	-3	18	-3	-4
158	-6	23	-63	5
157	-1	24	-6	6
158	-2	19	28	3
157	7	20	-4	-7
158	7	15	37	-5
158	14	15	18	3
157	26	15	14	5
157	21	18	21	13
157	15	22	10	6
158	9	16	19	4
157	11	15	6	4
158	8	13	28	6
157	4	17	39	14
157	4	19	29	10
158	1	14	-6	8
158	1	17	-18	-3
158	1	18	-6	-11
158	1	16	-15	-6
158	0	19	5	-10
157	3	17	38	-7
157	4	14	16	-7
158	4	20	-12	-9
158	6	19	2	2
158	1	17	1	2
158	2	19	-6	4
158	3	20	3	7
158	4	17	-4	2
157	1	17	-11	1
159	2	17	14	4
158	3	20	42	10
158	1	17	30	11
157	-3	12	10	10
158	3	15	8	11
157	3	15	17	9
158	9	17	18	5
157	5	19	4	10
158	-3	17	12	7
158	12	18	15	-1
157	17	17	-5	2
158	13	23	-10	4
157	4	29	20	4
157	0	30	17	-6
158	0	20	-19	-12
158	0	15	-32	-23
157	6	18	-28	-30
157	5	22	-14	-24
157	8	18	-3	-14
158	2	14	15	-6
157	3	13	19	-3
157	5	15	14	4
158	5	18	17	8
158	6	17	32	6
158	5	19	59	5
158	7	18	63	5
157	5	15	-7	8
157	7	18	-75	4
158	8	22	-17	1
157	6	16	-8	9
158	3	17	-12	10
158	3	18	48	11
157	4	19	30	13
157	5	18	38	16
157	6	15	-6	11
158	8	17	-30	11
158	9	15	34	17
158	7	14	53	10
157	4	11	58	-2
157	4	13	-19	-16
157	7	23	-104	-8
157	9	23	-25	-9
158	1	17	22	-10
157	3	22	-27	-6
158	3	19	-6	-5
157	5	21	-4	6
157	3	21	-9	5
158	1	19	-7	2
158	3	18	20	4
158	1	17	60	0
157	0	19	81	-5
157	0	17	72	-2
157	1	15	15	3
158	3	15	-2	4
157	5	21	-5	4
157	5	20	16	6
157	1	17	12	12
158	7	14	-16	12
157	18	18	15	11
158	20	23	35	8
158	9	21	3	1
158	8	21	-15	-1
158	7	19	-5	-1
158	2	18	-4	5
157	-1	18	20	4
157	-14	18	25	2
157	-11	19	37	-2
157	-7	18	35	-9
157	-1	15	-17	3
157	8	12	-42	4
157	16	19	-27	-8
157	30	23	-36	4
157	28	22	-44	3
158	17	27	-1	-3
158	9	23	-1	2
159	13	21	-7	4
158	14	13	-19	8
158	10	13	-7	-3
158	7	13	29	-2
157	1	10	29	-13
158	-1	18	22	-25
158	-4	22	10	-20
157	-6	21	30	-6
157	0	19	34	-3
158	2	21	32	-1
158	3	22	61	3
158	7	24	73	0
158	6	16	0	5
157	4	15	-71	5
158	4	19	15	-1
157	0	17	60	11
158	-1	18	35	24
158	-1	18	27	13
157	-2	11	-60	9
158	3	17	-52	-2
158	4	21	2	2
158	6	21	-14	9
158	3	22	-9	15
157	3	21	-12	15
158	0	19	-4	9
157	4	19	8	9
158	5	17	15	-6
158	7	18	9	-13
158	7	20	-5	-13
158	8	19	-10	-9
158	4	17	32	-2
158	3	21	43	3
158	8	19	6	4
157	7	17	22	-1
157	5	15	25	0
158	4	15	24	-3
158	3	15	21	-4
158	4	15	2	0
158	5	19	-4	5
158	5	19	0	6
158	2	16	7	9
158	5	19	8	11
157	5	19	22	11
157	6	16	28	9
157	7	12	56	4
158	7	12	85	5
157	3	14	37	1
157	8	22	-74	10
158	9	26	-65	6
158	5	14	5	-6
158	4	15	-30	-10
157	5	18	2	-25
158	-2	20	21	-29
157	4	22	-4	-31
158	3	17	-3	-16
157	5	17	-9	0
158	3	17	-5	-7
157	-3	19	-22	2
158	4	21	-19	2
157	13	20	-21	4
159	20	23	-17	18
157	20	24	7	19
158	8	18	6	23
157	-2	15	-4	17
158	-10	21	8	13
158	-12	15	52	8
157	-6	15	69	3
158	-2	15	58	6
157	7	17	51	7
157	14	15	23	9
158	23	13	-1	-4
158	26	18	6	-15
157	17	17	-7	-19
158	12	22	-1	-11
157	10	19	2	-3
158	10	24	-5	-2
157	7	21	6	3
157	5	19	10	6
158	4	21	13	4
158	1	18	10	-1
157	1	18	36	0
157	-4	17	72	4
158	-3	18	64	2
158	2	17	-10	9
157	-2	23	-33	6
158	-18	21	8	2
157	-20	12	-71	4
158	-4	13	-81	0
157	-1	14	-22	-2
157	7	15	-42	2
158	9	18	-8	-1
158	14	18	-13	7
157	30	18	-8	12
158	33	23	34	11
157	21	24	54	11
158	11	23	55	7
158	11	18	31	-1
157	7	22	36	3
157	4	19	3	3
157	-6	14	-37	2
158	-3	12	-35	4
157	-1	13	-2	-8
158	-1	21	10	-14
157	0	14	14	-6
158	-2	15	29	-2
157	12	18	16	-7
158	11	19	-2	-2
158	-4	23	-29	6
158	-14	22	-14	10
157	-18	18	39	11
158	-8	18	42	11
158	-3	15	14	10
157	-2	18	8	4
158	-9	16	18	-2
157	-1	15	22	-8
158	28	19	25	-11
157	30	22	33	-16
159	27	19	41	-9
157	46	15	22	0
158	37	11	20	0
157	24	15	28	-5
158	10	17	6	-1
158	9	15	-21	-5
158	10	18	-16	-10
158	-8	23	-19	4
158	-8	29	-24	7
158	-7	26	-5	9
157	6	26	-7	15
159	16	21	-8	10
158	1	22	-6	4
158	3	19	6	4
157	13	15	18	4
158	16	17	22	1
157	15	14	25	2
158	15	17	23	0
157	10	16	19	0
157	0	14	1	3
157	-10	10	-10	13
158	-21	8	-16	19
158	-35	9	-14	12
157	-71	15	8	2
158	-96	16	16	-7
158	-52	17	12	-5
158	17	22	10	1
158	42	18	12	6
157	45	22	21	3
158	49	24	24	-2
157	62	25	17	-9
157	69	28	17	-11
157	48	26	-16	0
158	32	18	-65	4
157	38	27	-51	-1
158	30	22	-19	0
158	15	16	-32	3
157	3	17	4	-1
157	-8	11	54	-2
157	-12	15	83	4
157	-14	16	115	9
158	-12	16	63	3
157	-17	17	7	2
158	-24	18	15	-5
158	-27	19	52	-9
157	-13	21	65	-8
157	-5	16	-16	0
157	-5	13	-55	8
157	-3	9	4	0
158	-8	11	5	-6
158	0	23	22	0
157	10	19	40	10
158	17	13	-16	11
157	16	18	-55	12
158	14	22	-51	9
158	8	17	-1	-2
158	5	14	-32	7
158	3	15	-43	9
157	-1	15	9	2
157	3	19	6	13
158	3	17	25	2
157	5	22	27	-17
157	4	20	7	-19
158	1	19	-14	-26
157	-1	22	-18	-17
158	0	17	-6	3
157	2	15	-5	14
158	7	8	3	23
157	10	9	20	18
157	8	19	25	7
157	3	19	13	-2
157	4	21	3	-7
157	-1	21	12	-8
158	-3	19	19	-13
158	-2	23	6	-15
157	-4	22	0	-9
158	4	24	-13	1
157	18	22	-22	6
157	23	19	-4	9
157	16	14	0	19
157	9	14	2	16
158	3	18	16	17
157	4	17	23	14
158	-1	19	53	7
158	-6	19	83	6
158	-8	18	48	4
157	-1	21	8	4
157	8	19	10	4
157	17	18	-16	10
158	27	18	2	6
158	24	21	31	4
157	17	19	42	2
158	14	15	41	-6
158	12	19	6	-11
159	6	26	37	-11
158	3	22	30	-14
158	5	16	-45	-6
157	6	24	-51	7
158	5	22	21	4
157	1	18	6	2
157	-1	23	-3	1
159	1	16	18	9
157	1	19	0	10
158	3	19	6	1
157	4	17	-32	-10
159	2	19	-36	-12
158	3	18	-14	-12
158	2	22	13	-8
158	2	19	-9	4
158	-3	9	-56	13
157	-20	9	-13	11
158	-24	16	40	-1
157	-5	13	57	-6
157	1	14	69	-8
158	-1	19	71	-1
157	9	15	38	0
158	26	17	24	7
158	38	21	23	-9
157	33	24	16	-14
157	25	23	34	-4
158	26	18	28	-5
158	26	17	-53	8
158	19	25	-118	12
157	5	19	-56	6
158	-1	15	-10	7
157	3	21	-11	8
157	1	19	14	4
158	1	23	32	1
158	3	19	31	0
157	1	13	19	-9
158	3	14	8	-10
158	-2	15	6	3
158	-4	17	12	11
158	-7	15	-2	10
157	-7	18	4	11
158	-2	18	29	10
157	1	22	52	4
157	3	21	52	11
158	-1	13	19	16
157	0	10	-21	3
158	4	19	-82	-8
158	7	24	-23	-4
157	8	16	13	-2
157	1	16	2	2
158	3	13	46	3
158	10	15	28	3
158	3	19	31	-1
157	1	21	28	-13
158	-4	17	13	-6
158	-7	15	-17	4
158	3	17	0	9
158	16	19	20	6
157	13	16	-15	4
157	1	12	-4	0
158	0	13	-15	-5
157	9	13	-12	-2
158	20	19	3	-5
157	22	24	-2	-4
158	22	29	3	-1
158	21	28	8	7
158	14	24	17	12
157	9	21	0	9
157	8	20	-25	0
158	5	20	-29	-1
157	1	18	-21	2
158	0	18	2	-1
158	0	18	35	-6
158	0	24	31	-5
157	0	27	26	0
157	-2	21	70	6
157	-1	10	62	9
157	3	6	-15	-2
158	3	15	-73	3
158	4	17	-16	4
158	1	16	45	2
157	-1	15	37	4
158	1	16	57	8
157	1	16	36	11
157	-1	15	36	8
157	-3	14	34	-2
157	-2	19	-10	-6
157	5	21	-38	-4
158	4	23	-27	-3
157	-12	21	-18	3
157	-37	18	-38	2
158	-40	19	-4	4
157	1	15	19	0
158	25	14	26	-4
157	21	11	19	-3
157	22	14	2	-2
157	34	20	21	0
157	49	21	40	1
157	32	17	51	7
158	12	22	2	-1
158	13	29	-73	2
157	16	24	-26	13
158	7	9	34	18
158	1	9	30	0
158	2	18	43	-9
157	3	22	-9	4
158	4	21	-17	0
158	-1	12	-22	-4
158	-2	13	-30	-13
158	-1	18	35	-1
158	1	20	56	6
157	2	21	28	-1
157	1	17	13	2
158	7	18	11	-1
158	10	19	24	3
157	4	16	36	3
157	-2	15	15	7
157	-1	13	6	2
157	-3	21	-6	-4
157	4	26	8	-1
158	9	25	32	2
158	6	21	6	2
157	-3	20	-32	1
157	-5	21	-20	-9
157	-1	20	-5	-10
158	4	21	-33	-7
158	-1	19	-38	-7
157	-5	21	-29	-3
158	5	17	-14	0
158	10	18	-5	6
157	16	21	-2	6
158	24	22	3	13
157	19	19	6	12
158	5	21	21	10
158	-2	22	32	6
158	-3	17	47	-2
157	-1	14	66	6
157	4	16	71	4
158	11	18	-1	6
158	14	21	-41	10
157	17	20	21	8
158	17	10	1	8
158	19	11	-21	1
157	10	21	27	-5
159	4	18	16	-1
158	4	19	-3	-4
158	0	18	13	2
157	-3	15	29	0
158	-3	19	25	2
157	-1	16	9	7
157	2	12	-30	1
158	4	14	-49	0
158	3	17	-24	-1
158	3	17	-1	-7
157	12	19	19	-10
158	15	22	-2	2
158	7	27	-19	-7
158	-2	29	12	-11
157	-3	26	21	-8
158	-1	25	19	-1
158	3	18	8	17
158	5	10	-3	8
158	3	18	12	-12
157	1	18	45	-3
157	-2	9	73	3
157	0	14	38	2
158	6	18	-29	8
158	8	19	-13	2
158	6	13	-5	3
158	3	14	-31	7
157	3	14	11	-1
158	4	18	21	-2
157	8	18	25	6
158	5	20	17	3
158	7	25	-7	4
158	5	17	9	8
158	8	17	6	4
158	6	16	0	-2
158	5	22	0	-4
157	5	15	6	8
157	7	14	5	7
158	9	18	1	8
158	9	14	21	6
158	5	12	42	8
158	-3	12	55	9
157	-27	16	33	2
157	-38	13	16	-1
158	-21	18	4	-12
157	-4	17	-11	-9
158	1	17	-3	-2
158	-3	17	-4	0
157	-5	15	8	0
158	23	27	13	2
158	43	33	20	4
158	51	26	-15	6
157	45	19	-65	7
158	33	22	30	0
157	31	17	84	-5
158	24	20	-8	-5
157	24	24	9	1
157	20	19	51	0
157	14	18	-3	-1
157	10	17	-14	2
158	5	20	6	0
157	-1	18	4	-6
157	-7	11	-13	-8
158	-7	14	-22	-8
157	-9	17	-4	-9
158	-6	15	-7	-8
158	-6	19	4	2
158	-3	16	18	8
158	-5	14	15	10
157	-9	18	6	14
158	-19	19	-8	8
158	-25	19	-7	-1
158	-11	17	6	0
158	1	15	13	-1
158	13	15	8	-7
157	14	11	-19	-5
157	12	16	-39	0
157	22	18	-8	3
157	23	15	2	10
157	14	23	2	8
157	1	24	30	11
157	-3	17	34	10
158	-2	18	28	0
157	-2	23	12	-5
158	-2	25	21	-5
157	-1	22	40	2
158	4	24	31	-2
158	5	21	-20	8
158	5	13	-43	12
158	3	14	10	9
158	8	17	19	6
157	8	21	6	7
158	3	18	15	12
158	4	16	20	-2
157	4	15	51	-10
158	3	13	61	-18
158	4	15	1	-9
158	9	21	-46	-1
157	6	15	0	1
158	1	13	-2	7
158	3	19	-31	6
158	4	16	-18	5
157	7	20	-21	0
157	9	19	-6	-4
158	9	21	-6	3
158	6	18	0	4
158	4	19	9	-8
158	8	29	5	-1
158	8	20	19	7
158	5	16	16	8
157	6	14	15	2
158	4	16	28	6
157	2	18	28	21
158	4	22	15	8
158	5	16	13	6
157	5	11	8	2
158	8	21	22	-2
158	3	20	27	-6
158	0	19	26	-6
157	-1	17	48	0
157	0	21	69	-1
158	10	22	45	0
158	19	17	-75	5
157	14	22	-112	2
157	1	18	9	-2
158	-2	16	13	6
158	-8	23	-5	4
158	-4	19	24	-1
157	1	15	-22	-1
158	4	17	-9	3
157	11	15	11	0
157	16	15	-4	-3
158	26	19	-15	3
158	27	22	15	4
157	17	22	46	-1
158	8	19	12	-1
158	12	18	14	-1
158	9	19	27	-6
157	2	15	12	-3
158	-6	19	14	-1
157	-27	21	25	10
157	-18	21	24	10
157	7	20	-12	-3
158	5	15	-53	-1
157	3	10	-53	-1
158	9	16	-12	-7
158	13	18	24	3
157	18	18	35	11
158	17	22	53	9
158	13	22	69	7
157	11	27	101	7
158	5	25	110	2
157	-1	16	33	2
157	-8	6	-71	3
157	-5	9	-110	-1
158	-2	15	-79	0
157	2	20	-50	-10
158	10	24	-20	-12
158	12	21	-3	-12
157	5	19	-6	-6
158	3	17	-2	-9
157	1	21	10	-12
157	2	16	35	3
157	3	14	40	2
157	-4	13	48	-1
158	-15	14	47	-7
159	-14	17	27	-9
157	1	19	15	0
158	11	19	12	5
158	15	18	20	11
157	12	17	24	10
157	13	15	23	1
158	19	14	5	-1
157	11	19	5	8
158	-5	15	40	7
158	-19	12	50	9
157	-3	19	-7	14
158	14	24	-53	6
157	9	17	-2	4
158	7	19	40	6
158	0	21	42	5
158	7	14	-44	4
158	21	19	-105	-3
157	25	27	-28	-7
158	19	24	-19	8
157	17	13	6	17
157	9	14	19	-1
158	13	20	-5	-9
157	10	18	25	1
158	1	18	27	4
157	5	18	13	4
157	2	18	-6	10
158	0	17	1	2
157	-4	15	6	2
158	-1	15	6	4
158	-3	15	3	0
159	-9	15	-4	-4
158	-7	15	0	-1
157	-6	19	12	0
158	5	19	32	4
157	17	21	28	10
158	23	19	22	4
158	9	16	-7	-3
157	-1	13	-18	-8
157	4	17	33	-10
158	3	22	37	-6
157	4	21	-11	0
158	3	22	2	-6
158	7	24	23	-2
158	8	14	62	0
158	4	12	78	-6
157	2	25	35	4
158	1	25	10	0
158	1	21	-30	-1
158	0	17	-24	6
158	-1	10	-16	4
158	4	17	-15	4
158	8	19	1	9
158	8	21	13	15
157	7	23	58	17
158	1	21	67	16
157	1	18	64	10
157	-4	15	38	4
158	-12	13	-36	0
158	-6	18	-80	0
158	-5	23	-45	-10
157	0	15	-15	-7
157	5	16	-29	-3
157	11	18	-24	-3
157	23	16	-19	10
157	13	19	-26	1
157	-6	23	-30	2
157	5	20	20	-11
157	20	19	25	-21
157	15	26	-53	-4
157	14	25	-51	3
157	9	13	7	11
157	15	11	20	16
157	24	21	35	7
158	19	24	51	-2
158	22	24	47	-6
158	19	18	85	-1
158	7	11	96	-4
157	0	9	19	-20
158	-1	15	-90	1
158	1	17	-14	7
158	0	12	62	6
157	-5	12	-2	7
159	-3	14	17	2
158	-1	15	0	3
157	-1	22	-11	-1
158	3	22	14	-7
157	3	22	19	-15
158	3	22	30	-13
157	1	21	21	-6
157	3	21	40	-2
157	3	21	27	3
157	1	16	5	10
158	4	13	-9	10
157	1	18	-13	5
158	-8	19	6	5
157	-10	20	9	6
158	-5	19	12	11
158	3	15	8	11
158	13	23	6	-5
157	14	24	17	-5
158	19	21	20	3
157	23	21	15	-1
157	18	19	-11	1
157	13	22	-33	9
157	6	15	-27	8
157	7	15	-20	6
157	3	17	6	3
157	-4	13	8	-4
157	-19	11	5	0
157	-23	10	29	2
157	-12	13	20	8
157	-4	12	9	9
158	-1	17	-9	9
158	11	24	15	22
157	34	24	27	19
158	33	20	-17	5
157	29	21	-23	-11
158	28	19	-10	-2
158	22	21	10	-3
158	16	25	48	-5
158	17	18	57	-1
158	12	15	3	-5
158	4	21	-21	-6
158	0	22	6	-15
158	-3	17	8	-8
157	-4	9	2	-1
158	-6	14	-14	-4
157	-6	17	-42	-3
157	-1	17	-35	-1
158	-3	19	28	-1
157	-4	20	72	-6
158	-4	20	22	0
158	-2	17	-29	3
158	-8	20	26	-14
157	-14	24	93	-17
158	-10	16	58	-9
157	-5	16	-56	7
157	5	19	-71	10
158	7	12	31	3
158	9	11	16	18
157	25	15	7	13
157	22	19	31	14
157	16	22	32	14
159	8	17	56	6
158	5	17	-4	8
158	6	19	-83	8
158	7	24	-51	-1
158	2	21	8	-6
157	3	18	-30	-6
157	5	19	-19	-15
158	2	16	5	-7
158	3	22	15	-7
157	-6	22	42	4
158	-17	19	32	9
157	-12	16	42	1
157	3	13	22	9
158	7	11	5	-1
158	6	15	-4	6
158	12	17	-1	9
158	22	15	13	9
157	28	19	14	6
158	19	22	-3	4
157	12	22	-2	4
159	12	19	27	-6
157	8	21	19	-4
158	5	18	40	0
158	2	19	50	9
157	4	21	32	8
158	2	19	31	13
157	-1	13	19	19
158	-3	8	6	6
158	-3	15	-13	-5
158	5	19	-44	4
158	4	17	-44	4
158	1	23	10	-11
158	1	23	12	-16
157	1	22	8	-17
158	7	25	8	-8
157	18	25	-17	-5
158	17	21	2	0
158	5	19	10	12
157	3	17	26	7
157	1	17	37	4
158	0	18	38	10
158	3	17	21	4
158	3	17	-3	-5
158	-2	18	-20	-1
157	-13	18	-13	4
158	-14	17	3	11
158	0	15	-1	17
157	5	15	13	7
157	12	16	-8	-1
158	16	17	-39	-4
158	18	14	-42	2
158	19	11	-11	0
158	16	15	-6	-8
158	14	19	-7	-7
158	5	18	8	-8
158	5	20	12	-8
157	13	19	24	-6
157	7	18	16	2
158	1	20	19	4
157	-3	24	23	3
157	-4	20	39	8
158	-9	21	51	10
158	-8	20	24	8
157	-9	14	10	3
158	-7	15	34	9
158	-1	13	-4	11
159	11	14	-69	6
158	26	19	8	1
157	20	18	26	6
157	14	22	-32	7
158	11	21	-7	9
158	11	19	-5	10
158	11	19	31	4
157	3	16	44	4
157	1	15	20	2
158	-1	19	35	2
158	0	18	43	0
158	1	21	-9	-2
158	7	25	-35	-5
158	10	17	22	-16
157	7	14	23	-28
157	5	15	-30	-24
157	3	16	-37	-13
158	0	13	23	-13
158	-16	15	14	-11
158	-14	19	8	-9
158	-3	19	45	4
157	0	23	29	10
159	5	19	38	12
157	5	17	28	15
157	10	13	-20	8
158	16	19	-57	12
157	24	15	-8	14
158	24	15	-3	0
157	23	25	-24	-6
157	14	14	-3	-2
158	11	17	5	0
157	12	23	15	10
158	5	21	-13	9
157	3	21	1	7
157	-4	19	19	5
158	-2	18	52	0
157	0	17	78	-1
158	-4	16	26	7
157	2	14	-24	15
158	0	18	-30	7
158	3	21	-13	9
158	13	21	-14	4
157	11	20	9	0
157	10	19	25	2
157	8	22	37	-1
158	-3	19	47	-3
158	-5	12	44	-10
158	-2	12	17	-10
157	1	19	4	-7
158	0	19	28	-6
158	-4	21	12	1
158	-3	21	5	5
158	-3	15	-10	8
157	-2	21	-10	4
158	12	19	3	-4
157	19	21	-9	2
157	13	20	-2	8
157	7	15	-7	7
157	5	17	-7	-1
157	4	19	-6	0
158	5	19	8	6
157	7	22	34	11
157	8	22	19	9
158	4	13	-5	4
158	6	17	-12	-11
157	5	18	-13	-11
159	4	17	-2	3
157	-3	20	9	1
158	-19	19	15	-2
158	-23	17	20	-3
157	-3	17	-2	-2
158	8	17	-10	-4
158	13	19	6	-1
158	21	21	4	4
157	32	21	6	3
157	34	24	13	8
158	26	24	10	4
158	16	22	8	-2
157	16	21	2	2
158	12	14	-1	9
157	3	13	24	10
158	2	17	71	9
157	-4	15	41	1
157	1	15	-71	4
157	6	23	-64	8
157	7	19	22	-2
157	3	18	5	2
158	1	18	15	2
158	-1	17	19	0
158	0	17	5	-4
157	2	14	17	3
158	1	18	-2	7
158	0	17	0	6
158	3	17	-12	6
158	1	19	4	-1
158	-1	14	19	-2
158	2	11	10	-5
158	4	14	1	-10
158	1	12	12	-11
158	5	15	33	0
157	4	19	29	7
157	3	19	38	6
157	3	17	13	-1
158	2	18	-17	-8
157	6	21	-23	-8
158	5	26	10	-6
158	5	26	37	-6
158	4	21	36	9
157	2	13	14	27
157	5	5	-43	19
157	4	12	-48	10
158	5	26	29	-14
157	4	25	72	-17
158	4	15	6	0
157	7	14	-56	-10
158	5	19	-25	-18
158	5	18	17	7
157	10	21	27	9
158	1	19	20	6
157	-6	18	8	12
157	-4	15	20	4
157	-5	17	-5	9
157	3	22	-6	-1
157	10	15	10	7
157	12	17	2	6
158	22	19	19	-1
158	22	19	7	-1
158	17	19	-13	-5
157	13	21	-12	-4
158	11	21	2	-8
158	10	19	1	-7
157	6	22	4	-6
157	5	19	20	5
158	4	15	32	21
157	1	7	43	17
157	2	12	9	0
158	1	19	5	-12
157	3	17	62	-11
158	3	19	59	-2
158	2	17	36	6
157	1	13	-26	4
158	2	13	-95	6
157	-2	19	6	2
157	-1	23	64	-7
157	4	25	12	-1
157	2	18	14	6
157	3	15	16	7
157	7	22	39	4
157	5	19	34	-2
158	3	15	-42	2
158	3	12	-72	3
157	5	14	-32	-1
158	3	18	-17	3
158	6	18	-5	7
158	2	20	8	1
157	1	23	8	0
158	6	22	24	5
158	5	20	22	4
157	7	28	17	4
157	7	25	-3	1
157	8	24	-19	0
157	8	18	-4	-2
158	7	17	11	0
157	7	19	13	-2
158	5	17	0	3
158	5	15	8	11
157	6	15	17	4
158	3	14	-6	7
157	4	14	2	8
157	4	17	21	13
157	3	11	18	10
157	2	14	0	3
157	1	17	-18	-4
159	4	15	-14	-6
157	3	15	-16	-3
157	0	15	1	-5
157	-4	20	19	-6
158	1	27	31	-4
157	12	25	47	-7
158	21	19	27	-6
158	10	19	7	3
157	5	19	36	1
157	10	18	64	9
157	9	18	37	9
157	10	15	71	4
158	-1	17	69	1
157	-10	12	-34	0
158	-3	18	-100	9
158	0	22	-51	-6
157	-1	17	0	-9
157	4	19	0	2
157	4	15	27	-1
159	11	18	21	-2
158	22	17	27	-13
158	18	17	30	-5
158	13	21	26	0
158	6	21	25	1
158	7	18	4	7
157	4	18	7	3
158	2	19	15	5
158	4	16	30	0
158	8	23	2	2
158	7	21	-26	3
157	2	17	-31	-2
158	3	20	-31	0
158	3	17	-35	-5
157	5	18	-15	-5
157	3	19	23	-3
157	3	22	10	11
158	3	19	29	9
157	1	15	17	3
157	-1	14	-8	10
157	1	15	-3	0
158	3	15	-13	3
158	7	14	-6	4
157	4	14	-10	6
157	3	14	5	9
158	1	18	-4	7
158	4	24	31	6
158	0	24	133	3
157	-7	9	66	3
158	3	10	-115	-7
159	14	27	-97	-12
158	9	23	15	-2
157	8	23	8	-3
157	2	22	22	-2
157	1	17	25	-5
157	6	18	-2	-6
157	3	18	6	-4
158	-2	20	15	-4
158	-1	22	15	-5
158	3	22	22	-1
157	9	21	25	9
157	1	18	6	15
158	2	23	14	14
157	7	25	25	13
157	11	17	20	0
158	19	17	13	-12
157	15	21	-6	-8
157	12	19	-3	-3
157	15	15	8	2
158	19	11	14	-8
157	20	15	13	1
157	18	19	1	12
157	14	17	-2	7
158	8	21	-3	10
158	9	16	3	11
158	-2	16	9	10
157	-4	15	-3	-2
158	-2	13	-8	-3
158	-1	15	0	4
158	-2	19	-1	4
157	-1	24	26	-4
158	0	19	48	-8
157	-3	19	33	-7
157	7	19	35	-2
159	20	17	25	-7
157	10	15	-4	-1
157	-4	16	-11	3
157	-6	19	-7	-8
158	-9	17	-13	0
158	-8	17	-12	-5
158	-1	19	5	-5
158	1	20	31	-10
157	9	19	63	-11
158	11	19	21	3
157	7	21	-36	13
158	6	19	-2	14
157	5	13	-6	17
157	5	21	-4	14
158	6	20	27	0
158	5	21	-19	2
158	8	18	-16	-1
158	7	16	-11	-4
157	8	21	-9	-1
158	4	18	10	4
158	3	17	1	0
157	5	19	20	8
157	4	18	27	13
157	5	14	37	8
158	12	13	2	11
157	11	16	-35	11
158	6	21	34	12
157	7	17	56	4
158	5	17	-40	3
157	7	24	-113	1
158	11	26	-33	0
158	1	14	65	4
158	1	10	65	2
157	1	14	30	-9
157	1	16	1	-1
157	7	18	25	2
157	8	21	22	-2
157	8	21	34	5
157	3	17	60	-4
157	3	17	49	-8
158	2	11	25	-7
157	5	14	-20	-2
158	5	17	-14	-3
158	3	15	12	6
158	7	17	8	0
158	4	24	10	-8
158	7	28	21	6
158	5	19	-13	15
158	5	9	-53	19
157	6	10	-36	7
157	3	19	-13	-2
158	4	16	-16	-5
158	3	21	-8	-10
157	8	18	15	-4
157	5	19	6	-1
158	-8	22	1	1
157	-12	15	2	7
157	-1	14	-3	8
158	7	13	29	15
158	13	13	79	13
157	14	15	66	6
157	15	19	7	2
158	19	22	-20	3
157	15	22	-5	3
158	1	19	6	-11
157	-9	17	-3	-11
157	-8	17	0	-3
158	-6	16	-4	-13
157	3	20	0	-14
158	7	21	4	-8
157	16	19	15	-7
158	26	21	21	1
158	20	18	15	2
157	15	21	14	1
157	10	22	5	6
157	7	22	3	10
157	-1	19	-2	8
157	-4	22	5	7
158	2	24	8	1
158	16	24	25	0
158	10	22	49	-8
158	-1	17	15	-2
157	5	24	-74	18
158	7	21	-57	22
158	-1	13	38	10
157	-16	13	51	0
157	-24	11	51	1
158	-18	11	31	2
157	-7	14	-4	1
158	-4	17	-17	-3
157	5	19	8	-3
157	18	21	27	-5
157	23	23	17	-4
158	30	26	2	-6
158	27	26	-32	-10
158	27	17	-11	-3
157	25	18	-5	-9
157	14	21	-3	-8
157	10	19	5	4
157	1	23	48	11
157	-10	23	97	10
158	-5	17	19	9
158	2	21	-49	15
157	0	16	-11	7
157	-6	9	-10	0
158	-3	15	-66	4
158	-1	19	-43	8
157	0	19	-17	7
158	1	18	12	-7
157	0	11	27	-1
157	3	9	16	-7
158	2	14	24	-27
157	4	19	27	-13
158	3	17	49	8
157	2	14	60	11
158	2	18	21	13
158	3	25	-57	12
158	4	18	-56	4
158	2	10	-65	5
158	3	12	-59	-4
158	1	17	0	-9
158	5	19	20	-6
158	3	21	81	-5
159	4	22	96	4
157	7	24	49	7
158	10	18	47	10
157	9	17	50	4
158	6	21	34	3
158	4	17	23	10
157	5	15	-9	7
157	3	17	-27	-8
158	5	22	-18	-9
158	5	22	30	2
157	7	26	21	0
158	7	22	-17	-7
157	3	17	-9	5
157	8	11	-16	9
157	7	13	19	-2
157	7	18	22	2
158	10	17	3	3
157	5	19	44	0
157	5	14	61	0
158	6	17	43	0
158	8	19	14	2
157	5	15	-42	7
157	5	16	-68	7
158	3	17	-60	2
158	5	11	-25	3
157	3	17	4	0
157	1	18	-28	0
158	3	17	-1	2
158	-5	22	13	4
158	-15	22	8	3
157	-12	20	15	6
158	3	23	5	6
157	15	19	30	0
158	31	16	22	-1
158	31	19	25	-2
158	24	19	37	0
158	26	22	52	-5
157	17	28	92	-12
158	6	23	84	-7
157	5	14	-52	7
158	5	14	-160	9
158	3	18	-58	-7
158	-4	22	-4	-2
157	3	19	-53	-4
157	3	20	-27	-4
158	-3	19	-1	2
158	-4	20	-15	2
158	-7	24	-25	-1
158	-10	19	12	-2
158	-13	18	113	0
157	-1	16	137	-1
157	1	12	63	-1
158	-1	14	24	-2
158	14	20	4	-4
159	30	21	-2	1
158	32	24	2	9
158	21	28	17	4
157	8	19	36	4
157	1	15	36	-1
157	4	18	38	3
157	3	20	40	7
158	0	18	17	10
157	-1	10	-13	10
158	-1	12	-11	-2
157	0	14	-11	0
158	0	14	-32	-2
157	1	20	-58	-4
158	1	25	-29	6
157	3	22	-7	13
158	7	12	-37	22
157	8	5	-40	17
157	0	10	-55	10
158	-3	17	2	-7
158	-9	14	49	-13
157	-7	15	41	-6
157	2	21	36	-6
158	10	27	3	-3
158	12	22	17	-6
157	7	19	11	-7
158	8	17	13	-10
158	1	14	19	-1
157	2	17	23	-7
158	10	24	28	-3
157	11	19	5	9
157	8	15	8	9
158	10	21	-20	13
157	9	19	-10	14
157	2	17	29	17
158	-12	16	13	13
158	-18	19	18	3
157	-5	17	20	2
157	1	19	20	4
158	5	19	50	0
158	8	14	29	0
158	11	21	-15	2
158	16	21	3	0
158	19	18	32	-1
158	25	21	45	-4
157	25	18	17	-6
157	18	20	-2	-8
158	14	24	16	-1
158	10	21	20	2
157	3	19	37	3
158	11	19	-14	6
158	14	18	-46	7
158	1	18	-16	6
158	0	17	-28	1
158	0	17	-42	0
158	0	14	-48	2
157	1	12	-35	-4
158	3	21	-30	-20
157	3	22	9	-19
158	3	18	74	-19
158	0	15	67	-16
157	-2	8	-7	-4
157	2	11	-60	0
157	2	17	-57	9
159	6	18	-17	8
157	3	14	24	11
157	4	17	13	16
158	3	18	41	13
157	3	22	59	3
158	5	22	34	-1
158	4	17	25	6
158	0	21	35	4
157	1	18	41	-2
158	-5	22	12	-4
157	-11	24	13	-5
157	-5	24	-5	1
158	1	23	-2	5
158	3	19	13	4
157	-3	18	2	3
157	-5	19	19	2
159	15	20	10	-2
158	25	18	12	0
157	26	18	9	11
157	26	17	3	14
158	26	15	-10	9
157	23	13	-5	-1
157	17	13	11	-1
157	12	19	1	-14
158	5	16	14	-5
157	3	17	16	2
158	3	24	14	-1
157	3	20	3	5
158	0	17	-1	7
158	-3	13	27	7
158	-4	18	48	-2
158	-1	25	46	4
157	0	21	9	3
157	1	11	-43	6
158	-1	11	-37	3
158	0	17	36	1
157	2	15	31	6
157	5	19	-9	4
157	7	24	-23	12
158	7	20	-36	8
158	1	20	-8	1
157	-1	22	10	2
157	0	22	34	7
157	0	13	37	4
158	2	6	-35	-3
158	4	14	-51	-8
157	5	14	-14	-12
158	6	17	-12	-3
158	8	22	10	-3
158	3	20	26	1
158	1	21	19	-1
158	2	19	24	0
157	3	18	11	4
157	8	20	12	2
157	4	23	10	7
158	0	25	13	6
157	-5	17	15	13
158	0	17	9	-5
158	0	17	8	-12
157	3	17	19	10
157	7	17	9	6
157	23	22	-6	0
158	30	17	63	6
157	15	16	100	-4
158	13	22	-9	-14
158	5	24	-119	-4
158	3	24	-10	-8
158	2	19	72	-5
157	-6	19	21	0
159	-10	18	19	-5
157	-10	19	11	3
158	-2	16	42	-1
157	2	10	30	2
158	9	14	-34	8
158	13	24	-49	10
158	19	22	26	1
157	22	20	36	-5
158	25	20	2	4
157	21	10	14	8
157	17	7	-24	9
158	15	11	-6	-1
158	11	18	13	2
158	5	15	27	4
157	2	18	15	6
158	4	26	-33	-1
158	-1	23	-42	3
158	2	21	-10	7
158	1	17	17	0
158	1	21	2	9
157	2	19	7	0
157	1	18	-5	2
158	2	16	-2	-1
158	-3	17	-5	3
159	0	18	-8	10
158	-1	18	6	12
158	0	17	-11	8
157	1	14	-17	-6
158	-1	17	23	-14
158	2	20	83	-10
157	-6	16	87	2
158	-13	11	62	-6
158	-11	17	31	2
158	-5	18	10	2
157	4	17	-4	2
157	8	18	-54	2
157	15	19	-43	0
157	25	23	-5	-1
158	24	23	0	-6
158	17	27	5	4
158	15	23	15	1
158	15	19	20	6
157	12	22	15	5
157	4	21	29	-2
158	3	17	15	-8
157	2	18	-25	-8
158	2	18	-9	3
157	5	18	9	9
157	5	17	5	17
158	2	15	4	13
158	4	18	0	0
157	-3	14	7	-3
159	-14	11	27	-1
158	-16	14	37	-2
157	-5	14	27	-4
157	3	10	-15	11
158	10	16	-31	7
157	14	29	4	-4
157	13	22	8	-1
157	17	18	6	2
158	14	19	12	7
157	9	19	23	4
157	3	17	39	2
158	1	17	20	-2
157	2	15	-23	-2
158	3	17	-34	1
157	5	21	8	-6
157	1	21	22	1
158	-1	24	53	2
158	-3	15	83	8
157	3	12	11	15
157	16	15	-47	12
158	15	24	6	-5
157	3	25	15	-1
158	4	17	-30	3
157	5	14	-25	-14
158	6	21	-17	-11
158	7	25	57	-8
157	4	16	21	-1
157	6	22	-72	-3
158	3	22	-25	-5
157	2	16	13	-1
157	1	15	6	2
158	5	16	13	4
158	5	22	14	7
158	4	17	16	6
157	1	19	15	6
158	5	18	10	7
158	5	17	30	-3
158	4	22	21	-11
157	4	15	6	-23
157	5	15	-5	-20
158	7	13	-10	-8
158	2	15	16	-1
158	5	18	35	0
157	8	21	10	2
157	5	17	-3	11
157	5	21	2	14
157	8	19	-1	15
158	5	17	6	15
158	5	22	14	15
158	4	24	30	15
157	5	18	44	10
157	4	5	25	11
157	8	10	-31	3
157	9	24	-15	-3
158	5	19	13	7
157	8	20	-12	2
157	5	21	2	-4
157	4	21	-1	-3
158	5	21	6	2
157	6	19	9	10
157	4	17	10	4
158	5	16	20	2
158	4	16	12	6
158	7	15	22	2
157	5	19	14	-8
158	4	22	4	-10
158	5	16	2	-11
158	7	19	24	-11
158	7	20	43	-7
158	4	13	14	2
157	2	12	-37	-1
158	1	19	-46	-5
158	0	22	-4	-5
157	3	17	0	-8
157	6	17	2	-3
158	8	23	12	2
157	10	23	13	16
158	8	17	11	22
157	1	12	3	18
158	4	18	3	8
158	7	17	13	0
158	4	16	48	3
158	3	13	44	-6
157	0	5	-2	-10
158	0	10	-49	-4
158	7	15	-6	0
157	7	19	0	4
158	9	23	-26	8
158	7	18	25	-1
158	6	22	28	-3
158	7	22	50	-5
158	1	15	27	-3
158	1	16	-9	17
158	6	20	10	21
157	4	27	36	7
158	3	22	34	10
157	2	8	35	11
158	1	10	11	-3
157	5	24	-74	-1
158	9	21	-46	3
157	5	21	-4	1
158	7	22	-26	0
157	8	18	-12	-6
158	6	18	-8	-7
158	9	17	-4	-5
157	16	17	19	-5
157	8	14	31	-1
158	-1	15	34	2
158	-1	15	28	5
158	-6	16	24	2
157	-3	19	10	-3
157	5	26	-1	-2
157	9	23	7	3
157	4	22	15	1
157	3	26	48	3
158	3	26	61	16
157	4	17	31	13
158	7	13	-10	1
157	4	15	-50	-4
158	6	15	-46	2
158	7	19	-11	-12
158	5	22	-3	-12
157	7	21	5	-11
158	5	19	19	-8
157	6	23	13	4
158	6	23	17	4
157	6	15	23	14
157	3	14	29	6
158	1	9	40	4
158	3	17	35	-12
157	-1	19	-23	-4
158	-6	19	-85	13
157	-13	17	-15	2
158	-7	7	6	4
158	4	13	-6	-4
157	8	14	43	0
158	12	13	27	7
158	23	17	30	4
158	36	19	22	9
157	38	23	16	6
157	17	22	18	3
158	8	23	5	-1
158	5	22	7	-1
158	3	17	-17	-4
158	8	19	-10	-3
158	4	18	41	-4
158	3	22	35	-3
157	4	21	15	-4
157	3	18	22	-10
158	3	21	9	-7
158	2	22	13	3
158	3	21	-3	8
158	-1	19	-28	1
158	-1	19	-54	13
157	3	19	-32	15
157	0	20	22	-2
158	1	16	27	-7
157	1	15	-15	-4
157	4	21	-72	11
158	7	17	-7	20
158	1	10	42	10
157	3	19	47	-10
158	3	19	77	-6
158	2	12	20	6
157	6	14	-5	-5
158	5	18	7	-17
158	2	24	-5	-14
158	1	17	-29	6
157	1	19	-13	2
158	1	18	-8	3
157	4	17	-10	-2
158	4	19	34	-7
157	9	21	52	-2
158	12	21	62	3
157	8	17	35	14
158	3	15	-10	18
158	3	14	-30	8
158	7	22	-8	-8
158	5	23	24	-9
158	4	22	15	-1
158	3	21	28	10
157	2	16	22	3
158	3	15	-17	3
157	9	20	-11	3
158	8	16	-6	-1
158	5	14	-18	2
158	4	20	-2	2
158	5	18	12	4
158	8	21	22	8
158	6	17	14	8
158	5	22	1	7
157	7	25	17	9
157	5	21	38	6
157	3	17	92	7
157	2	13	62	9
158	5	11	-63	-2
157	7	16	-90	1
158	5	21	-6	4
157	3	17	8	5
157	1	16	-8	1
158	3	14	0	-5
158	5	16	-7	-7
158	9	18	11	-1
157	14	16	9	1
157	9	20	22	0
158	1	21	22	6
158	-2	15	21	3
157	-3	17	27	4
157	-1	21	0	2
157	5	21	-7	0
158	8	22	38	3
157	3	19	57	0
158	3	18	1	-10
158	2	12	-6	-9
158	-1	15	-5	-3
159	3	18	7	-7
157	5	19	12	-6
158	4	18	2	-3
158	3	16	3	-7
158	4	19	-9	-6
157	2	16	-1	-4
158	7	19	-16	-1
158	18	22	-12	4
157	13	21	1	4
157	3	22	12	7
158	-5	15	21	10
158	-16	15	-3	6
158	-11	14	-6	7
157	7	10	19	0
157	13	15	10	-12
157	20	21	-6	-16
157	21	23	5	-7
158	21	19	6	-1
158	20	20	22	-2
158	11	22	53	7
157	5	17	43	11
157	4	16	-36	20
157	8	22	-34	17
157	1	20	31	0
157	-4	17	-27	5
158	5	23	-42	3
157	5	24	10	3
158	4	26	40	7
158	6	26	51	12
158	3	14	2	12
157	1	7	-28	-7
157	1	19	-20	-16
158	5	23	2	-1
157	4	15	5	-2
157	3	20	-22	-2
158	3	20	-18	-3
158	2	17	5	-3
157	4	13	0	4
158	-3	13	-6	0
158	1	21	-6	5
158	4	15	24	2
157	2	9	69	-8
158	1	14	46	-2
158	-8	18	24	-4
157	-16	15	17	0
158	-7	19	15	9
157	5	18	18	9
158	4	24	34	9
157	-1	29	73	2
157	-3	25	41	-4
158	-2	17	-52	15
158	7	7	-64	23
158	17	11	3	-10
158	26	20	10	-18
158	30	17	37	0
158	35	19	51	-5
157	32	20	34	-4
157	25	18	19	6
158	17	18	-19	10
157	13	19	-3	3
158	11	22	1	-1
157	5	20	-7	-1
157	1	19	-15	9
158	0	19	2	10
158	1	14	-3	-1
157	-4	15	-52	-3
157	-5	17	-16	-1
157	-4	17	17	-2
157	-5	17	-19	-2
158	-1	22	-18	2
157	-4	17	5	0
157	0	20	0	2
157	0	23	9	-4
158	1	22	16	-5
158	1	20	25	0
157	0	22	55	0
158	1	19	48	5
158	3	17	23	7
157	3	18	46	4
158	4	15	46	7
157	9	20	39	4
157	5	24	41	8
157	2	17	-28	17
157	2	9	-57	20
157	1	11	-46	15
158	0	13	-32	7
157	0	15	-8	-4
157	0	17	22	-8
157	-2	15	34	-17
157	0	21	43	-20
158	13	19	43	-24
158	19	22	10	-23
157	10	23	6	-15
157	7	19	16	-10
158	8	19	32	-7
157	8	19	-12	-2
158	10	24	-50	12
158	10	20	5	9
158	9	15	15	6
157	11	19	3	7
158	13	21	19	4
157	15	18	4	8
157	11	14	-22	10
158	4	19	-40	13
158	1	18	15	9
157	-3	15	37	11
157	0	17	27	12
157	3	15	21	12
158	3	17	-16	9
158	4	17	-12	6
158	-4	19	2	-6
157	-16	22	6	-12
158	-13	18	13	-2
158	7	20	22	2
158	14	14	4	10
157	14	9	-59	5
157	16	19	-26	-2
157	17	19	31	-10
157	20	25	16	-6
157	17	25	45	0
157	9	15	22	-1
158	3	12	-10	3
158	-1	14	7	3
158	-6	22	21	12
158	2	20	27	3
157	4	18	20	5
157	-1	13	42	8
158	-2	16	35	-4
158	-17	20	3	-6
157	-23	16	-59	2
158	-7	21	-80	-3
158	-3	17	-14	1
157	2	17	17	11
158	9	17	14	-5
158	12	18	4	-14
158	10	19	4	-11
158	10	19	17	-10
158	14	18	25	-7
158	22	15	9	0
158	32	18	2	-2
158	26	21	14	2
157	24	25	18	3
157	26	23	18	4
157	16	27	15	0
158	12	25	9	4
157	3	17	1	10
158	4	16	-14	8
158	3	18	-5	9
158	-4	16	35	8
157	-5	16	37	13
157	-6	12	20	9
158	-2	13	17	0
158	-1	21	0	-5
157	-2	16	2	-4
157	-2	18	12	5
158	-2	21	26	12
158	-3	17	35	9
157	-5	17	7	4
157	-4	9	-28	6
158	-4	14	-19	-4
157	1	21	2	-1
158	12	19	7	-3
157	19	19	27	-4
158	11	19	20	0
158	5	17	13	2
157	8	17	8	-3
158	1	15	6	-6
157	-1	17	13	6
158	-13	15	13	2
157	-22	14	41	-2
157	-5	15	36	-1
158	7	20	-30	3
158	16	25	-55	7
158	11	19	4	2
158	-21	21	-7	2
158	-21	17	15	4
158	4	19	96	2
158	9	27	89	-7
157	18	13	16	2
157	24	17	-108	-6
157	37	21	-71	-18
158	43	12	13	0
158	42	18	0	0
157	33	17	21	0
157	19	15	17	2
158	-5	19	3	-4
158	-23	18	-34	7
158	-12	18	-5	1
157	-6	19	25	-5
158	-1	21	21	-1
158	-4	17	26	-1
157	4	16	-38	12
157	26	19	-16	13
158	28	21	-1	12
157	22	26	-5	10
157	14	27	24	15
158	12	24	32	15
158	3	17	56	7
157	5	11	32	6
157	3	10	12	-1
158	-4	14	1	-15
157	-6	19	-39	-9
158	-13	14	-51	-1
158	-14	17	-15	-15
159	-9	23	16	-16
157	9	21	6	-15
157	15	22	21	-4
158	4	17	15	7
158	-2	17	24	-1
157	3	21	38	7
157	3	21	27	9
158	-6	19	15	12
157	-24	18	2	11
158	-19	17	8	7
157	6	16	2	7
158	-3	19	16	10
158	-13	17	28	8
157	-12	11	35	5
158	-5	10	18	2
158	18	14	16	-2
157	19	17	31	-6
158	20	21	8	-5
157	26	19	-15	3
157	25	21	-42	-1
157	24	24	-7	6
158	16	26	43	9
157	10	18	6	1
158	19	15	-38	-3
158	23	18	-6	-9
158	28	16	49	-6
158	25	21	44	-4
157	18	29	0	-5
158	14	25	-4	-2
158	13	17	20	-6
157	6	9	13	-14
157	-6	10	-16	-10
158	-7	10	-33	0
158	-13	13	-10	-2
157	-16	15	-2	7
157	-7	21	-34	14
157	-3	27	-37	10
158	-3	13	17	14
157	-5	12	20	10
158	-5	18	39	-4
157	-3	19	65	-2
158	7	20	42	-2
157	2	16	-13	-3
158	1	23	-93	6
157	-1	24	-32	10
157	2	17	6	4
157	8	15	-7	-5
157	3	17	3	-15
158	3	10	8	-3
157	0	13	73	14
158	-4	16	57	18
157	-2	13	35	7
157	-1	24	50	-11
158	3	28	31	-3
157	8	23	25	-5
157	12	22	19	3
158	11	17	21	8
157	6	15	5	4
157	3	19	-5	7
158	3	16	-20	0
158	1	19	-23	2
158	3	21	-9	8
158	4	19	-12	8
158	17	22	0	6
158	22	19	12	8
157	10	15	30	7
157	5	17	31	1
158	5	17	20	-2
158	7	18	-10	-4
157	11	27	8	-10
158	10	24	44	-1
157	8	19	12	11
158	6	20	-3	13
157	4	9	-14	8
158	3	12	-20	-9
157	2	19	-23	-14
157	2	15	-18	0
157	3	16	-5	6
158	4	13	-6	10
158	5	12	-2	1
157	4	19	-12	-5
157	3	19	7	-5
157	3	22	24	0
158	1	19	37	8
157	1	17	48	6
158	6	17	28	9
158	4	17	-1	-6
157	0	20	-15	-7
157	-9	22	8	-9
157	-11	19	22	-5
158	1	20	20	4
158	11	23	20	4
157	22	21	20	6
158	20	17	19	4
158	26	18	-2	4
158	28	19	-12	5
157	7	19	20	8
157	-8	16	-1	4
158	-12	13	-53	6
158	-13	18	-26	0
157	-2	19	5	-2
158	8	22	15	-1
157	12	28	33	4
158	23	22	15	1
158	23	22	-9	-6
158	8	18	12	-2
158	-6	13	30	7
158	-8	16	51	10
157	3	19	61	0
157	9	11	-35	2
159	12	15	-88	-6
158	8	15	-2	-9
157	17	14	36	-3
158	30	17	-21	1
158	24	16	-74	1
157	19	15	-23	-2
157	-3	12	19	0
157	-8	17	-11	-7
157	1	20	-25	-6
158	-34	24	-8	2
157	-49	25	19	-1
159	-23	26	-6	-4
157	-9	26	16	-1
157	29	22	20	3
157	71	21	19	0
158	42	22	36	-6
158	23	25	41	5
157	-10	21	75	17
157	-35	22	47	7
158	-33	19	34	3
157	-24	13	51	9
157	-8	17	33	7
158	-10	18	2	4
158	17	15	-2	3
157	4	7	10	1
157	7	9	17	4
157	27	19	9	8
157	16	22	7	-1
158	35	18	13	-3
158	22	13	1	-3
158	24	20	9	-9
157	40	17	24	3
157	36	8	22	7
158	30	14	-15	5
157	13	21	-24	4
158	1	22	35	-2
157	-13	16	25	1
158	-11	12	-8	7
158	-16	10	-11	-1
158	-18	13	1	-8
158	-18	19	14	-4
158	-22	20	-25	3
158	-19	18	-8	7
158	-3	19	-7	7
157	19	21	-18	7
157	26	22	-1	6
158	24	23	-7	6
157	16	17	0	2
158	16	19	1	3
157	15	14	4	6
157	-4	15	4	8
157	-21	18	8	7
157	-19	18	8	2
157	-18	18	16	-2
158	-13	17	17	-5
157	0	17	18	-8
158	5	15	25	-1
157	15	21	18	7
158	19	23	20	6
157	19	24	20	2
157	17	26	28	-3
158	15	21	-1	-4
157	9	17	-49	-1
158	3	14	-24	3
157	3	15	46	2
158	0	16	66	7
157	-1	9	8	8
158	-1	15	-57	1
157	-1	17	-25	-4
157	-4	16	1	-10
158	-9	21	-30	-2
158	-5	22	9	-1
158	3	25	-2	5
157	5	23	4	4
158	5	20	28	4
158	11	20	15	4
158	11	21	35	0
158	14	19	13	3
157	13	17	2	-4
157	14	19	0	-6
157	7	18	2	-3
158	4	16	-17	-4
158	7	15	-45	-8
157	0	15	-46	-4
158	6	17	-24	-1
158	8	19	-10	-14
158	10	19	-21	-5
157	7	20	17	6
158	3	24	83	11
157	-1	19	135	10
157	-4	17	69	15
157	0	11	-22	24
158	7	12	19	0
158	23	17	68	-11
157	22	17	45	-4
157	15	21	25	-12
158	14	24	24	-5
157	5	19	-8	-2
158	12	21	-38	0
157	3	18	-45	0
158	-22	19	-33	0
157	-14	19	-20	9
159	8	18	-5	10
158	-4	16	19	14
158	3	13	19	13
157	6	10	-7	15
157	13	11	13	-3
158	13	17	55	-12
157	4	21	37	2
158	7	18	69	12
157	-8	14	65	14
157	10	18	-1	2
158	33	19	-27	-5
159	5	20	-46	-8
157	-21	22	-14	-16
157	-38	16	-22	-8
158	-28	12	-38	-7
158	-23	19	-27	-2
158	-41	24	-10	2
158	9	24	5	0
157	67	24	-1	3
157	57	24	15	7
157	38	19	27	15
158	14	13	50	10
158	5	18	42	-3
158	29	21	22	-6
157	15	21	43	-7
157	-3	19	58	-2
157	6	15	-9	9
158	4	18	-71	8
157	8	23	-8	2
157	8	23	5	10
157	12	25	-19	7
158	14	22	23	6
158	12	19	19	3
157	7	11	20	1
157	-5	8	8	0
158	-15	13	-21	-3
158	-20	13	-27	-2
158	56	21	-28	-4
158	173	18	14	-2
158	145	10	42	2
157	108	12	7	2
157	-4	9	-4	5
157	-195	-2	0	4
158	-189	-15	2	11
158	-279	-13	15	15
157	-237	-2	12	9
157	-46	6	19	-1
157	-61	9	30	-9
157	50	12	34	-9
158	166	28	23	-11
158	199	51	14	-18
158	216	81	7	-14
158	90	83	30	-2
157	-19	55	50	3
157	-40	47	-24	14
157	-34	42	-67	13
158	-48	39	-18	-12
157	-20	27	3	-13
157	117	6	16	-3
157	196	11	23	4
158	155	8	1	11
157	110	9	8	7
158	26	13	-1	-1
158	-96	9	2	-3
157	-198	7	9	2
158	-219	6	-11	-2
158	-96	2	-6	1
158	-18	-6	12	9
158	-12	5	5	7
158	1	12	-6	6
157	-21	7	-7	6
158	-12	22	-18	2
157	23	24	4	10
157	30	23	25	0
157	25	25	32	-4
158	12	26	15	-1
158	11	30	18	-12
158	-7	32	55	-3
157	-23	30	17	2
157	-11	27	-34	4
157	9	17	10	-2
157	55	-22	43	6
158	93	-6	22	9
158	92	39	21	8
158	96	10	-27	18
158	18	-59	-26	10
158	-108	-97	15	7
158	-52	-46	12	2
157	-41	58	68	0
158	-68	99	82	1
157	-23	89	-9	-4
157	-25	36	-110	-3
157	100	11	-56	-1
157	128	42	17	-1
158	45	4	10	-1
158	22	14	12	-5
158	-21	33	-32	-1
158	-29	39	-19	-7
157	-38	26	1	-8
158	-29	30	15	-6
157	-11	49	52	-6
159	14	32	29	-5
158	27	38	27	2
157	45	28	31	11
158	55	22	15	13
158	55	9	1	10
158	53	6	-2	-4
157	32	2	27	-4
157	22	-1	39	-6
158	73	10	12	-6
158	159	8	13	2
158	120	10	13	-4
157	63	6	2	4
157	48	6	-1	7
157	-57	-8	2	6
158	-296	-16	16	1
157	-360	-1	35	4
157	-106	25	78	2
158	-48	37	58	6
157	-102	26	-48	16
158	-15	40	-104	15
157	27	44	-30	14
158	50	38	-4	4
157	83	33	-22	2
158	78	24	4	-13
157	38	17	13	-4
157	-23	-5	12	2
158	-56	-10	-27	-11
158	1	20	-8	-15
157	49	25	21	-9
158	46	33	6	-3
157	38	37	12	-5
158	30	30	28	2
158	40	28	32	2
157	38	26	0	6
157	33	25	-9	2
157	10	21	12	-4
157	4	21	9	-1
157	14	12	21	9
158	24	10	53	9
157	19	12	55	1
158	3	13	23	4
157	5	10	-8	7
157	2	-1	-62	9
158	30	5	-95	7
157	42	11	6	6
158	27	8	37	3
157	24	8	24	-1
157	9	11	53	3
157	7	9	19	-1
158	-35	22	6	0
158	-35	41	-18	5
158	10	38	-13	2
157	-17	22	5	9
157	-35	21	1	1
158	-47	6	-5	6
157	-35	1	-33	6
157	-29	13	-25	-4
157	-31	7	-16	0
158	-11	-9	0	-3
158	-24	-10	13	-8
158	5	4	20	-2
157	58	-9	63	-1
157	61	-26	125	-1
157	44	-25	84	1
157	33	23	-37	7
157	12	96	-10	4
157	5	130	34	0
157	33	100	-31	5
158	37	35	-19	7
158	14	27	15	16
157	24	23	3	9
158	66	11	-3	-2
158	142	20	-16	-14
158	99	14	-8	-18
157	-3	18	-5	-6
158	-126	14	8	-4
157	-286	12	21	3
158	-308	7	24	9
158	-274	4	24	6
157	9	11	33	-2
158	217	-2	43	-4
157	185	-2	20	-10
157	233	10	10	-10
158	155	19	5	-2
157	106	24	-1	9
157	49	18	-11	12
157	-52	17	-5	4
158	-31	17	3	5
158	-8	24	1	0
157	-6	29	8	3
157	-18	27	2	2
158	-10	21	6	4
157	-1	16	2	0
157	-3	19	-16	3
158	-22	15	-13	4
158	-27	15	17	-3
158	-26	15	47	4
158	-20	19	15	14
158	-6	20	-43	26
158	1	18	10	11
157	10	12	7	-5
158	4	16	-64	2
157	1	19	16	5
157	12	16	29	-2
158	20	18	13	-3
158	15	14	29	1
158	10	15	11	1
158	26	16	19	2
158	31	14	19	0
157	12	16	20	0
157	-5	18	5	-4
157	-11	17	-17	-4
157	-15	16	-15	-2
157	-8	15	-2	4
158	-9	18	-9	0
157	-26	20	-10	4
158	-3	15	-7	9
157	34	15	-10	-2
158	35	22	8	-4
157	43	17	14	2
158	32	14	26	-3
157	10	17	40	-12
158	26	19	38	-8
157	53	20	40	-1
157	77	24	60	3
157	-5	19	67	4
158	-71	14	34	7
157	-88	12	-3	11
158	-85	18	-66	9
157	-40	25	-90	2
157	-8	25	-34	-11
157	12	33	-8	0
158	-2	26	10	3
158	-23	15	15	4
157	-72	21	16	-4
157	-63	18	51	-16
158	-22	10	27	-5
158	-4	0	-12	4
158	48	-6	10	7
158	112	-5	25	7
158	110	0	3	5
158	63	29	-9	-2
158	67	47	-5	-3
158	26	43	18	-8
157	-77	24	25	-10
157	-115	17	16	-2
158	63	19	5	4
158	239	10	-27	2
158	181	11	-11	2
157	113	15	8	3
158	32	22	6	9
158	-49	32	24	13
158	-119	47	68	7
157	-188	47	86	7
157	-78	39	-31	11
157	-10	28	-94	4
158	-54	25	-9	-1
157	-50	30	14	7
158	-118	15	-4	0
157	-69	15	10	-1
157	8	16	11	-1
157	16	11	39	-6
158	38	7	24	8
157	55	-6	-27	8
158	112	1	-26	-4
157	80	10	10	5
158	32	10	10	12
158	-9	11	3	9
157	-11	15	17	10
157	42	18	33	8
157	13	11	36	-4
157	-13	4	-18	-21
158	-1	4	-28	-16
158	19	8	9	-4
157	38	8	38	-6
157	41	17	32	-3
157	34	23	40	-1
158	31	26	89	0
157	22	24	43	3
157	-6	28	-59	6
158	-14	35	-72	10
158	-18	32	11	6
157	-16	28	10	10
158	-9	28	-5	15
157	-18	18	21	-1
158	-29	13	5	-5
157	-34	2	-6	-2
158	-20	-4	-25	-15
158	10	6	2	-8
157	0	-3	16	6
157	-24	-16	40	8
158	47	-8	33	2
158	30	21	-19	-6
157	-35	55	-29	1
157	5	24	-25	7
158	65	-12	5	-1
157	161	40	0	-1
158	185	86	10	0
157	185	66	38	6
158	86	47	35	5
158	18	24	29	0
158	-55	6	18	-4
158	-232	7	4	-4
158	-326	11	-7	0
157	-212	27	10	2
157	22	23	15	7
158	-12	19	57	11
157	0	24	64	4
157	5	23	-42	7
158	-11	21	-97	14
157	32	14	-34	10
158	-5	9	-14	8
157	42	12	-21	-9
158	14	12	5	-14
158	7	10	10	-3
157	-8	11	33	6
157	-34	6	23	0
158	-32	5	19	-4
157	1	9	21	4
157	50	16	14	6
158	65	14	31	7
158	92	8	31	2
158	84	2	4	4
158	82	-5	-43	2
158	49	-14	-10	-2
157	44	1	38	-4
158	42	22	30	-2
158	15	5	14	0
158	1	-11	-27	-2
157	-24	16	-11	1
158	-26	62	14	0
158	20	56	8	4
157	38	38	22	3
157	-16	37	15	3
157	-56	30	13	4
158	-116	36	12	1
157	-89	28	17	-3
158	-48	28	44	-8
157	-33	41	34	-7
157	23	54	-19	0
157	14	50	-38	3
157	10	31	4	-4
157	-3	25	-16	0
157	17	2	-4	15
158	24	16	48	11
158	45	40	14	-1
158	120	-23	3	5
158	122	-39	8	-2
157	102	-6	-2	-10
157	99	3	-2	4
157	85	27	13	2
158	32	15	34	0
158	-3	21	42	1
157	33	19	17	-1
158	111	12	-10	2
157	92	15	8	2
157	-12	10	20	3
157	-99	10	6	4
157	-261	-6	4	4
158	-289	-4	-15	2
158	-119	-4	-29	7
158	17	8	35	6
158	25	18	54	0
158	-50	37	-49	0
157	-42	84	-78	-1
158	-33	54	16	1
158	-7	3	27	-4
157	5	19	16	2
158	10	18	33	2
158	59	21	21	4
158	38	17	22	0
157	45	8	2	1
158	35	15	-19	-8
158	49	17	-30	-6
158	58	21	0	2
158	46	9	43	1
158	71	12	16	11
158	32	12	6	7
157	-1	21	-5	7
158	-32	39	-12	-4
157	-38	33	26	-6
158	-6	7	17	5
159	-13	17	-7	-1
158	-9	20	22	0
157	-18	6	38	-1
158	-87	17	30	4
157	-121	18	0	9
158	-42	23	30	8
158	5	10	46	11
157	38	7	-31	-7
158	113	20	-46	-19
157	159	17	-32	-10
157	140	15	-6	-6
157	73	17	-1	4
157	42	21	-2	0
159	-15	23	20	0
157	-29	17	43	7
158	3	14	60	2
158	4	19	-20	8
158	10	20	-35	13
157	3	12	25	7
158	11	6	8	3
158	64	17	-9	-3
157	125	20	-11	0
157	90	12	-24	-2
157	42	3	-14	4
158	30	-2	-2	7
157	-91	3	3	-6
158	-237	14	8	-7
157	-216	21	19	6
157	-75	31	24	2
157	-90	39	26	-2
157	-97	47	14	2
157	45	50	16	4
157	38	48	39	0
158	10	45	16	3
157	5	32	-4	10
157	-26	22	-3	4
158	3	15	8	0
157	10	19	43	-4
158	32	18	72	-6
157	43	9	28	0
158	50	12	-71	9
157	64	15	-47	6
157	55	9	-1	0
158	54	10	-31	6
157	47	11	17	4
157	36	1	41	2
158	33	3	43	-4
158	36	4	32	-9
158	30	13	0	4
158	16	16	9	13
158	-1	14	0	3
158	-2	18	0	-7
157	15	16	-5	-2
158	12	12	4	5
157	3	16	-4	-4
158	-1	18	-1	-2
158	-12	18	24	-2
157	-55	21	30	2
157	-79	19	47	9
157	-13	15	46	14
157	59	5	19	4
158	20	-6	-29	-15
157	-4	-8	-20	-8
157	-11	-18	8	3
157	-78	-26	0	2
158	-42	-9	8	0
158	126	22	5	-4
157	201	82	10	-2
158	54	120	0	6
157	-10	38	-12	2
158	-62	12	28	-4
158	-130	65	53	-4
157	-154	64	24	-5
158	-64	50	5	0
158	67	32	-24	3
157	1	35	-79	11
157	37	13	-35	9
158	120	-2	10	4
157	93	3	0	2
157	-33	8	21	2
157	-56	21	-7	10
158	-8	11	1	2
157	-21	18	17	3
158	5	13	24	0
157	21	13	29	3
157	39	10	15	13
158	55	2	7	7
158	66	13	-18	6
157	33	8	-10	-3
158	9	5	-19	2
158	-6	-2	1	3
158	-15	-5	32	-10
158	-22	-3	15	-4
158	-22	-4	15	-7
157	-5	-2	-1	-9
158	-2	11	-12	-1
159	67	22	15	-6
157	69	34	19	2
158	30	37	29	10
158	7	29	67	4
157	-96	40	80	3
158	-149	56	7	6
158	-88	25	-80	4
158	1	14	-11	-1
158	-9	15	38	7
158	6	27	17	5
157	25	52	34	-1
158	25	19	-1	4
158	47	6	-4	-12
158	36	10	6	-12
157	33	3	10	-7
158	-2	9	19	-8
157	6	-2	16	4
158	4	16	6	-5
157	8	48	-13	-13
157	37	18	-14	-2
158	24	1	-11	4
157	15	19	26	8
157	2	9	16	10
158	3	11	-19	4
157	-10	14	-41	10
158	-14	17	-26	16
157	-6	18	11	16
157	-5	13	9	12
157	-6	11	34	2
158	5	9	32	3
158	72	16	19	2
157	65	16	31	2
159	-7	18	53	0
157	5	14	29	2
157	-4	19	-47	10
157	-17	30	-20	10
158	37	32	59	1
157	105	29	37	-9
158	92	19	-36	-11
157	11	22	-59	-1
157	-94	21	-23	-6
158	-267	9	-8	-3
158	-233	10	6	1
159	-24	12	14	0
157	42	16	3	4
157	52	19	16	1
158	89	21	19	2
157	80	22	33	-2
157	82	17	25	-2
158	51	17	-1	3
158	-23	13	-15	1
157	-39	10	15	-3
158	-9	14	56	1
157	12	22	48	8
158	23	22	-37	10
158	45	16	-110	11
158	46	3	-20	0
157	36	-6	34	-2
158	18	13	37	2
157	6	34	71	-4
157	-5	39	48	-3
158	-22	26	10	2
158	-14	33	2	-1
158	-2	39	14	-1
158	-20	32	-3	2
158	-25	40	8	8
158	18	34	15	19
157	32	15	17	21
158	15	3	19	6
157	-4	13	7	-19
157	17	10	2	-24
158	146	-8	-27	-11
157	225	-10	-17	-21
158	114	-21	9	-21
157	26	-13	28	-12
157	-41	21	38	-8
158	-185	33	14	-2
158	-275	33	16	0
157	-56	53	12	10
157	94	79	-14	16
157	29	60	-32	18
157	14	-13	-4	13
158	-119	-50	33	2
158	-32	23	17	6
158	64	122	14	6
157	-84	100	10	6
157	-147	22	-13	7
158	-127	22	-13	8
157	-49	10	11	7
158	-4	3	30	8
158	106	4	-13	3
158	228	-4	-40	-3
158	203	8	-7	-6
158	140	7	20	-6
158	52	28	21	-4
157	-17	13	14	2
157	-8	-8	5	0
158	-49	8	7	0
157	-110	21	30	7
157	-87	22	63	4
158	-37	-19	54	-2
157	-3	-31	-47	8
158	28	9	-70	7
157	69	51	22	-4
158	107	17	8	3
157	110	-6	-9	5
158	80	17	34	0
158	41	3	51	-5
158	3	18	24	8
157	-14	32	-41	14
158	-28	47	-9	-4
157	-45	43	4	-11
158	-39	15	-26	-3
157	-17	9	31	0
158	-7	-1	73	3
158	3	-7	42	9
157	15	6	-63	8
157	25	19	-79	4
158	-3	12	12	-9
157	-20	11	1	-1
157	-16	19	8	3
158	-7	19	26	-4
158	0	21	20	-3
158	-15	17	37	-1
157	-4	18	20	9
158	32	21	22	10
157	74	17	12	4
157	52	17	-3	8
157	11	21	-12	-5
158	-16	24	-2	-9
157	-72	22	2	-1
157	-126	19	1	-4
158	-82	19	3	-3
158	5	25	1	-6
157	-18	25	13	-1
157	-28	24	11	-6
159	-50	19	14	0
158	-26	12	12	3
157	19	15	8	-13
157	19	13	12	2
157	46	-5	8	11
158	89	-6	15	12
158	151	10	34	4
157	98	20	25	-1
158	75	27	-16	13
158	41	33	-26	0
158	27	48	-8	-1
158	53	52	0	0
157	37	50	-13	3
157	2	38	0	7
158	-119	15	31	10
158	-182	10	32	8
157	-169	12	36	4
158	-3	4	36	6
158	19	-7	6	7
158	-47	2	-6	9
158	-85	26	8	-4
157	-49	34	12	-4
157	107	41	6	-2
158	59	50	-30	-6
158	75	46	-26	3
158	122	22	12	-3
159	87	21	43	-5
158	36	29	36	-2
158	21	13	-52	4
157	85	13	-60	0
158	36	7	21	-4
158	8	-4	27	-2
158	-23	-6	22	2
158	-59	-13	48	6
158	-80	-2	46	-2
157	-41	-2	8	-1
158	48	2	-31	1
158	8	6	3	0
158	-15	7	16	4
158	-40	0	8	6
157	-61	13	19	6
158	-7	66	32	4
159	22	90	75	4
157	97	5	49	3
157	127	-58	-52	7
158	125	6	-49	10
158	155	47	21	10
157	92	36	3	7
158	-83	15	0	-2
157	-274	39	-1	-9
157	-170	49	5	-9
158	-9	11	32	-1
158	-97	22	-26	-2
158	-89	32	-52	-10
157	-39	12	-7	-4
158	-20	6	10	0
157	14	5	6	1
158	27	10	16	1
158	106	29	7	-4
158	116	14	15	0
158	122	5	13	4
158	103	13	8	14
158	75	17	17	19
158	80	27	9	10
157	37	25	6	-13
158	-23	40	0	-17
157	-66	46	2	-13
157	-46	34	16	-11
157	-15	5	40	2
157	13	-38	18	11
158	46	7	-33	14
157	97	63	-12	12
157	115	22	6	15
158	34	8	17	4
157	-40	15	36	-5
157	-123	28	22	-7
158	-191	38	17	-6
158	-141	24	9	-2
157	-62	24	2	2
158	28	38	18	4
157	11	46	28	2
158	-5	20	23	3
157	30	4	-18	1
158	2	-3	-57	12
158	25	13	-10	-1
157	1	33	18	-1
157	8	11	11	8
158	12	19	15	7
158	15	9	23	7
158	22	-1	60	2
157	13	-1	17	6
158	20	-2	-75	2
157	13	13	-58	3
158	4	6	6	0
158	-46	4	2	-1
158	-62	3	12	-1
157	-20	7	29	0
158	-1	26	13	0
157	4	33	5	1
157	18	15	4	4
158	47	4	19	6
158	94	9	6	8
157	94	2	0	-1
158	48	5	-6	-6
157	3	3	-1	-10
158	30	21	36	-2
158	55	81	73	-7
158	37	85	22	-3
158	70	20	-72	8
158	47	13	-15	3
157	-3	16	31	8
157	-46	17	10	10
157	-58	48	32	7
157	-25	50	5	-6
158	-37	22	1	-4
157	-53	2	-4	2
158	-54	14	5	-4
157	5	12	57	-11
157	99	14	46	-7
157	134	12	-4	4
158	72	7	-10	2
157	52	4	3	2
158	75	9	-1	7
158	-60	9	19	2
158	-154	2	11	4
158	-91	12	5	-3
158	-41	8	4	-2
157	-40	11	11	-1
157	-56	12	29	-2
158	-43	18	15	2
157	-5	25	-13	6
158	-15	22	-16	17
157	-18	19	14	9
158	20	31	-11	-6
158	26	37	-6	-2
157	37	23	32	-3
158	32	18	10	-1
157	31	13	-30	-2
157	107	18	-26	-5
158	112	26	16	0
157	36	21	16	3
158	-6	13	10	1
157	-67	8	15	8
157	-111	11	18	5
157	-118	14	19	6
158	-31	5	13	9
157	-9	-9	17	-1
157	17	-2	9	-4
157	87	19	14	-3
158	14	19	24	0
157	-12	2	20	-5
158	-52	-2	-15	-2
157	-12	29	-33	-1
158	21	65	-6	-1
158	29	61	13	2
158	72	34	11	6
158	70	38	4	11
158	122	41	6	6
157	98	27	36	-3
157	68	4	115	-8
158	60	8	87	-13
158	61	32	-110	1
159	38	37	-136	7
158	14	24	20	-4
159	-8	24	17	4
157	-79	31	4	2
158	-135	32	10	2
157	-100	20	-17	9
159	-30	8	16	7
157	-128	16	6	4
158	-105	9	18	2
157	-34	-2	14	7
158	-8	-20	5	10
158	57	-28	10	10
158	64	34	7	-1
158	110	30	18	1
157	147	-13	-5	1
157	128	15	-3	0
157	33	11	1	0
158	6	9	0	-5
158	-21	14	10	10
157	-93	6	18	7
157	-44	25	14	6
157	1	33	20	6
157	-43	26	46	-8
158	-89	1	51	-13
157	-74	-5	4	-10
158	-59	3	-47	-5
157	-31	9	-1	-11
158	-11	13	17	-6
157	30	25	1	-3
157	88	81	20	0
158	90	98	4	18
158	91	28	15	19
157	79	18	20	20
157	62	21	24	-2
157	65	5	-23	-23
158	82	15	-57	-3
158	67	3	-4	8
157	-38	6	10	14
158	-75	4	7	18
158	-65	33	5	13
157	-131	42	21	3
157	-157	3	29	-6
158	-42	-2	-5	-11
157	87	1	-15	-10
159	51	14	2	-4
158	15	17	20	-7
158	14	24	25	-1
157	30	28	16	0
158	24	20	5	4
158	-12	16	1	2
158	1	6	9	2
157	-9	5	15	4
157	9	11	17	0
157	8	24	17	4
158	-1	22	17	6
158	-11	19	33	6
158	-23	26	53	3
158	-8	18	68	-2
157	0	29	-6	0
158	41	50	-68	13
159	66	39	33	4
158	106	14	28	-3
158	128	21	-75	1
158	51	26	-52	-5
158	14	12	12	-8
158	1	-3	17	-2
157	-78	0	19	7
157	-137	9	41	10
158	-68	15	18	8
158	-8	16	4	0
158	-30	13	-8	-4
157	-4	19	7	-5
157	-4	30	5	-1
157	-13	33	-15	2
157	-17	35	-1	-1
157	-9	27	-6	9
157	17	15	8	11
158	15	20	21	6
157	60	17	19	6
157	111	12	9	-1
158	86	14	-15	-2
158	57	14	-3	-6
157	13	15	5	-8
157	-127	9	-14	-4
157	-117	10	0	-14
158	-18	10	5	-2
158	25	12	0	6
158	62	13	3	6
158	27	9	5	9
157	-47	11	17	1
157	-6	14	18	-4
157	87	17	18	2
158	22	10	31	7
157	-82	11	30	14
158	-75	18	16	17
158	4	38	10	14
157	43	44	18	5
157	79	19	26	-18
158	58	2	-10	-18
157	36	4	-29	-2
158	60	55	15	-8
157	79	62	6	-1
158	64	-1	17	2
157	15	9	41	1
158	-11	49	22	8
158	-108	25	20	1
157	-134	-6	6	-3
158	-47	6	-21	1
157	5	5	-44	0
157	25	8	-19	0
158	33	9	5	4
157	47	-2	6	3
158	56	-5	6	1
157	33	2	0	4
157	13	9	16	2
157	1	33	14	-1
157	-8	88	16	-1
158	-8	39	20	-2
158	-9	-15	44	0
157	-5	0	72	4
158	-14	-11	15	7
158	-17	38	-75	10
157	-31	41	-33	7
158	-45	18	43	2
157	-20	43	37	-4
158	-1	22	18	-10
157	14	22	-60	-1
158	20	35	-22	-5
157	49	39	19	-3
157	122	22	-29	6
157	120	7	-2	9
157	87	15	-4	6
158	16	11	11	1
157	-130	14	14	0
157	-172	17	12	-2
157	-117	26	23	-3
157	-106	4	25	-1
158	-13	12	37	1
158	107	25	24	3
157	78	8	16	10
157	100	11	12	7
157	59	16	2	7
158	32	13	-2	2
158	33	16	26	-8
158	-38	30	33	-1
158	-41	28	-9	-2
158	-22	20	-32	0
158	17	10	-24	-5
157	4	17	-4	1
158	-3	23	-1	7
157	-10	14	6	5
157	-15	6	15	3
157	4	5	15	-1
158	51	13	7	4
157	72	17	23	-3
158	32	21	71	-2
157	36	31	49	-6
157	-5	31	-8	-3
158	-75	22	-15	8
158	-88	24	6	18
158	5	14	19	15
157	20	10	-2	4
157	3	-6	6	-1
158	22	-10	9	7
158	-1	10	-10	4
158	15	8	5	-3
158	1	17	32	-5
157	20	25	43	-15
158	37	25	-1	-1
158	26	27	-78	17
158	24	23	-65	3
158	9	22	1	-11
157	-15	24	9	-4
157	-46	29	31	-2
158	-11	33	32	2
158	17	34	15	7
157	1	36	15	9
158	3	36	2	-3
159	8	24	1	-9
158	26	7	-1	4
158	11	-4	10	2
157	-70	8	10	4
158	-63	10	6	5
158	40	-4	1	5
157	79	4	0	0
157	80	8	17	1
158	103	9	24	6
158	80	9	55	2
157	-27	2	50	4
158	-52	14	-46	2
157	-10	17	-62	5
158	-26	23	43	-2
158	-78	44	60	0
158	-52	43	18	4
157	-24	19	-44	16
158	-85	18	-28	11
158	-75	56	29	-10
158	-31	88	-18	-15
157	-22	19	17	-10
158	-47	-23	25	0
158	32	2	17	2
158	145	-13	15	2
157	93	29	-17	3
158	68	48	8	2
158	35	0	-4	-3
157	-5	-15	-8	-1
158	61	-7	10	-8
157	183	29	15	-8
158	248	48	15	2
157	161	24	17	-1
157	30	39	19	0
157	-61	21	12	-1
158	-131	-26	16	-1
157	-218	5	13	-1
158	-226	61	8	2
157	-94	70	10	2
157	-1	42	17	1
158	7	31	13	6
158	7	18	8	19
157	-5	6	-1	23
157	-47	5	-8	8
158	-113	17	23	4
158	-69	16	32	7
157	-8	1	0	8
158	-14	-3	-6	10
157	59	3	15	4
158	93	11	19	7
158	151	5	-12	-6
158	202	-2	-28	-10
157	218	-11	-27	-10
157	162	3	-11	-12
158	15	29	14	-6
158	-28	48	19	-4
157	-138	22	13	-3
158	-169	-5	8	0
157	-47	37	16	3
157	15	42	22	2
158	3	32	22	3
158	19	25	14	0
158	19	12	5	-7
158	-22	15	-4	-4
157	-13	1	-9	9
158	-28	14	-17	11
157	-17	26	-9	0
158	-7	24	22	-6
158	-7	25	55	2
157	-3	1	10	13
158	-17	-5	-66	13
158	-24	8	-4	-4
157	-44	14	58	-8
158	-54	12	58	-5
157	-34	17	27	0
158	0	26	-10	10
158	24	29	43	4
158	53	30	-36	11
157	65	31	-63	11
157	64	23	22	2
158	92	27	-34	-6
158	87	29	-16	-11
157	27	22	16	-8
158	8	19	17	-7
158	-3	20	13	-5
157	-9	24	15	-2
158	5	23	42	2
158	-5	16	22	4
158	9	-7	17	11
157	7	-16	22	5
157	-8	-8	12	-1
157	13	-16	-3	8
158	0	-26	-13	9
157	-83	4	-18	8
158	-29	62	-6	9
157	106	72	17	0
157	51	3	17	-6
158	-36	31	9	-8
157	21	91	9	-6
158	-23	33	25	-6
157	-162	41	30	-6
157	-50	55	32	4
157	53	21	34	4
158	-17	19	21	2
157	-22	12	-19	5
158	-9	8	-33	12
157	53	12	-3	6
157	56	13	6	-4
157	46	6	4	-4
157	37	-3	11	0
157	-23	4	35	6
158	-12	12	25	4
158	10	17	-12	12
158	12	-1	-12	11
157	0	3	10	12
157	-6	8	6	4
157	6	-3	-18	-6
158	8	-6	-6	-9
157	63	-17	8	-9
157	116	11	8	-2
158	45	37	12	-8
157	5	5	17	-7
158	-1	-17	17	-3
158	-74	41	3	5
158	-121	85	-7	9
157	-16	55	-10	-4
158	108	49	1	-11
157	29	41	2	-4
159	4	35	5	-1
158	-16	38	21	2
158	-26	30	21	6
157	12	42	23	9
157	-14	33	36	14
157	3	9	78	9
157	-10	-3	107	8
157	-3	-6	23	13
158	-5	-1	-74	5
158	-3	-10	-80	-6
157	5	4	-74	11
158	-4	14	-32	-1
158	-28	14	-5	-16
157	-47	17	-33	4
158	49	10	-7	5
158	101	4	-16	8
157	100	-8	-16	0
158	86	-2	15	-6
157	21	10	22	-8
157	-54	6	37	-11
157	-55	18	41	-9
158	-13	37	53	-4
158	-72	50	36	4
157	-69	35	21	0
158	-23	24	14	3
158	-28	40	6	1
158	20	31	19	3
157	47	2	25	2
157	19	-10	31	-7
158	30	6	16	-4
158	44	9	-13	7
158	32	-2	-15	-1
158	57	6	12	0
158	66	69	21	10
157	46	117	25	12
157	11	31	-7	15
157	-14	16	-57	10
158	-2	58	-34	-2
158	1	6	6	-5
157	7	-4	18	8
158	-12	8	29	11
158	-13	-4	34	4
158	-1	11	13	-19
157	38	12	9	-14
158	85	13	3	-3
158	39	19	-3	-4
158	7	11	8	6
157	-25	15	1	-4
157	-106	17	17	-1
158	-162	11	19	3
158	-54	14	13	6
158	78	10	10	6
158	-17	14	0	7
157	-22	14	2	4
158	-48	-1	-1	-2
157	-206	-19	12	2
158	-199	-8	10	-2
158	-60	1	1	7
158	29	-13	10	8
158	38	-19	9	13
158	146	5	5	15
157	199	63	10	10
157	195	97	53	5
157	179	75	86	-13
158	102	46	12	-6
157	25	29	-77	11
158	8	37	-31	4
157	34	33	17	-9
157	-14	19	19	-8
158	-56	32	88	2
158	-65	36	48	2
157	-72	22	-90	11
157	-33	15	-90	8
158	-10	15	-7	-4
157	17	21	-5	-12
157	52	9	25	-15
157	48	-6	16	1
158	36	3	-26	3
157	8	9	13	2
157	30	-10	6	8
158	112	11	6	6
158	115	18	8	3
157	50	-2	10	1
157	25	8	25	-1
158	-53	28	20	-8
158	-185	48	21	-4
158	-212	6	6	4
158	-88	-19	3	4
158	-3	-8	30	-1
157	4	-23	38	-4
158	0	0	-12	-4
158	-17	16	4	-8
157	1	52	22	-1
157	-3	106	-6	8
158	19	62	22	10
158	58	23	29	7
158	82	22	10	7
157	18	21	-29	9
159	-89	15	-27	7
157	-190	-2	0	4
158	-229	5	-1	0
157	-134	12	6	7
157	35	40	4	10
157	140	-2	6	7
158	167	-18	5	-4
157	295	12	10	-8
157	293	7	16	7
157	188	17	19	4
157	39	22	21	2
157	-84	27	21	4
158	-26	30	26	-2
157	-35	33	22	-8
157	-14	25	5	-9
157	-6	21	-7	-5
158	-57	26	5	-6
158	-43	17	15	-4
158	-28	19	3	3
157	-29	17	0	12
158	-40	15	1	8
157	54	10	10	5
157	151	5	23	6
158	84	5	21	0
158	46	4	2	0
157	-3	-4	6	1
158	-164	-13	23	3
157	-243	0	18	-9
157	-88	33	36	-8
157	4	47	74	-2
157	-67	49	35	8
158	-15	54	-51	12
157	-21	57	-40	0
157	11	64	-50	-2
157	43	44	-56	5
157	28	30	4	-4
158	53	22	-23	-13
158	40	13	-2	-10
157	66	-9	-7	0
157	88	-9	-12	4
158	67	14	25	0
158	-69	8	-7	4
158	-166	10	17	-3
158	-158	-8	15	-5
158	-143	-11	12	-4
158	-52	-5	14	2
157	158	15	10	7
157	269	14	36	9
158	248	-1	60	13
157	204	11	72	3
157	78	15	25	10
158	14	30	-21	13
158	-38	26	-33	4
158	-31	9	-32	4
158	3	-6	0	-1
157	31	-3	15	-2
158	61	24	8	-7
157	12	58	21	-1
157	36	74	16	-2
157	1	33	15	1
158	-27	-6	12	0
158	-3	-1	10	-2
158	27	5	18	9
158	-28	48	5	5
158	-185	106	4	-4
157	-224	37	7	-4
158	-180	3	-1	-3
158	-40	26	-12	-1
158	-21	8	-4	2
158	15	25	10	0
157	38	7	6	8
158	13	-5	3	9
157	55	-7	-1	-2
157	27	6	2	6
157	52	11	16	7
158	16	3	14	-1
157	41	2	12	0
157	35	-3	9	0
158	-4	14	8	0
158	54	9	7	6
157	65	16	5	-1
157	53	28	7	-2
157	15	14	12	1
157	5	-10	10	5
157	-52	7	4	3
158	-110	11	8	-9
157	-55	11	9	-5
158	14	15	13	-7
157	-11	20	11	-8
157	-6	65	6	-1
157	11	70	4	-1
158	11	30	1	3
158	25	22	6	2
157	-19	31	11	8
157	-23	14	21	7
157	-31	17	21	7
158	-84	17	13	13
157	-47	17	31	7
157	53	17	33	7
157	97	22	-60	8
158	147	32	-71	4
158	210	22	22	-4
158	163	29	6	-4
158	24	32	30	3
157	15	19	40	9
158	31	6	8	8
157	-43	-2	13	-7
157	-20	31	5	-14
157	-38	38	40	7
157	-52	-2	69	12
158	-54	-8	86	9
157	-102	15	-5	7
158	-87	50	-126	-7
157	-83	24	-68	-12
158	17	-3	-12	-6
157	91	4	-20	-10
158	67	2	1	-10
158	89	21	8	-7
158	80	38	42	-12
158	29	39	53	-2
157	-51	8	16	10
158	-34	-3	-16	18
158	1	3	-1	5
157	-87	-11	41	-4
158	-104	-6	10	-6
158	-7	43	-34	6
157	42	99	1	8
157	11	46	35	4
158	6	-10	9	13
158	2	30	8	7
157	10	26	10	3
158	20	28	3	2
157	-1	21	4	7
157	-54	2	6	4
157	-115	-1	13	9
158	-154	-18	20	13
157	-168	-15	26	12
157	8	-27	6	-4
158	135	-6	-19	-10
158	186	9	-24	-2
158	278	3	-5	1
157	225	6	8	7
157	162	49	29	-4
157	121	110	27	-5
158	59	107	6	-6
157	-64	33	19	-11
157	-97	-4	13	0
158	-56	23	29	6
158	-58	0	65	10
158	-6	2	53	7
157	-50	2	-22	9
158	-55	7	-21	13
158	2	11	36	2
157	61	19	-53	-14
158	22	38	-84	-23
157	-33	22	-15	-10
157	-10	25	10	4
158	-17	15	56	9
158	-11	10	26	-6
158	-34	25	-45	-8
157	4	30	-3	-3
157	69	19	47	-1
157	58	15	12	9
158	16	21	-1	17
158	-11	15	-11	17
158	-65	12	-15	4
158	-94	6	13	-4
157	-77	14	6	-4
158	-7	17	15	0
157	-5	16	10	4
157	-79	23	4	11
158	-90	15	13	7
158	-42	11	7	-4
158	90	6	19	-4
158	52	4	35	-4
157	20	14	32	-4
157	-14	27	-13	2
158	-12	13	-30	14
158	65	13	13	9
158	3	24	10	9
157	7	15	2	11
157	21	16	1	0
157	33	21	13	-6
158	27	27	56	2
158	4	23	43	4
157	1	22	26	-1
158	-15	21	19	-5
158	-12	19	-16	-1
157	12	13	-8	4
157	32	20	8	0
157	20	29	4	6
158	36	10	7	2
158	23	1	-2	0
158	-78	-1	-10	2
158	-205	31	-1	-4
158	-126	53	6	-1
158	61	-6	8	-3
157	110	-10	11	-1
158	135	20	13	1
157	176	9	12	-2
157	181	21	9	2
158	156	27	17	7
157	115	65	45	5
157	5	84	51	-4
158	-66	-11	-48	-4
158	-4	-34	-80	-4
157	-9	-1	-5	-9
159	1	-3	-7	-4
158	8	18	9	-5
158	-42	37	5	-6
157	-33	70	-1	-8
158	-54	69	13	-1
157	-55	30	7	4
157	-59	11	25	7
157	-36	43	8	13
157	83	20	1	10
157	141	-16	17	9
157	58	2	56	-9
158	51	-14	22	-9
158	12	17	-62	9
157	-142	13	-35	8
158	-191	-18	13	-4
158	-52	-1	4	-11
157	-38	21	19	3
158	-100	47	30	11
158	-10	34	34	7
158	-22	30	35	8
158	30	30	21	9
158	21	15	25	12
158	-4	17	25	-1
158	25	24	12	0
157	-1	23	-19	4
157	-1	27	-6	-3
158	-16	29	25	-5
158	27	9	6	-8
157	9	13	-11	-7
157	12	18	-11	6
157	4	4	5	8
157	-10	6	-1	14
158	11	6	-11	9
158	3	14	6	6
157	-56	24	24	4
157	-129	6	13	0
157	-58	11	-18	6
159	0	26	4	0
157	14	10	15	-7
157	91	-4	8	-10
157	203	-8	25	-1
157	239	21	30	13
158	218	61	52	-2
157	151	47	33	-18
157	58	18	-39	-14
158	37	26	-69	-10
158	7	34	-23	0
158	-18	24	2	3
157	0	2	-3	4
158	79	-1	10	13
157	106	2	1	13
157	35	0	10	10
157	-44	-6	14	4
157	-181	-4	21	2
158	-237	11	47	4
157	-198	25	78	8
157	-126	41	50	13
157	-38	45	-66	16
158	-49	39	-68	9
158	-30	15	13	-2
158	-7	42	6	-1
157	-1	46	18	-6
157	32	-14	9	-4
157	53	-4	-8	-11
158	119	2	44	-7
158	97	1	65	-1
157	48	57	25	-2
158	34	96	-55	9
157	-31	29	-25	-1
158	-85	-7	10	-4
157	-49	-5	-12	11
158	-24	-24	0	10
158	-102	13	-7	-6
158	-110	11	11	-20
158	-78	28	33	-6
158	7	21	21	4
158	55	5	-1	6
158	27	11	5	3
158	69	11	30	-5
157	108	26	5	1
158	135	22	11	-1
158	127	19	27	5
158	128	24	14	4
158	56	47	20	0
157	-35	31	13	0
157	-66	24	6	-1
158	-77	39	13	0
158	-29	60	25	7
157	-31	41	29	5
157	-88	-2	5	5
158	-88	8	-44	7
157	-10	8	-21	7
158	32	14	21	14
158	37	9	5	15
157	81	9	-1	0
158	181	13	-20	-12
158	158	8	-7	-2
158	79	2	10	12
158	74	4	4	0
157	17	16	1	-4
158	95	14	-35	0
158	173	15	-27	1
158	108	9	39	0
157	-29	12	73	-3
158	-134	11	45	-4
157	-237	7	-4	0
157	-298	15	-11	9
158	-184	28	27	3
157	-86	30	18	7
157	1	23	9	-1
157	-6	11	12	-6
158	-3	7	1	0
157	28	29	13	0
157	12	17	42	-2
157	20	-9	42	3
157	1	-20	-51	12
158	35	13	-48	3
158	19	48	15	-5
157	19	17	-17	-6
158	32	1	-11	-4
157	63	0	-15	-5
158	70	33	0	-2
157	31	56	52	0
158	81	33	59	-5
157	68	17	10	0
158	1	11	-60	7
158	-34	22	-5	-6
157	-33	49	19	-8
157	-36	108	-12	4
157	-9	103	8	6
157	24	23	4	11
157	26	6	10	11
157	42	-7	9	5
157	-11	-37	15	6
157	-84	-24	16	2
158	-103	-18	17	3
158	-48	13	32	11
157	-19	16	34	2
158	-21	0	20	-7
158	34	21	4	-5
158	125	56	32	-1
157	117	42	36	-3
157	94	13	-10	12
158	52	8	-42	3
157	-26	42	-16	0
158	78	68	12	6
157	97	24	2	-1
158	16	28	-3	0
157	-27	43	-15	4
158	-50	0	-8	6
158	-35	3	4	15
157	-28	14	10	15
157	-28	8	20	6
157	-27	6	8	2
157	-32	-12	10	0
158	-30	-5	14	-4
158	8	12	24	-2
158	52	13	18	-5
158	58	-6	-3	-9
158	91	-5	-4	-3
158	86	-1	20	2
157	-15	2	31	-3
158	-94	13	22	2
157	-133	35	10	0
158	-117	47	-7	-9
158	-105	29	-16	2
158	43	24	-9	9
158	96	11	17	0
157	-9	22	11	-10
158	20	31	13	-15
157	-20	17	15	-2
158	-41	19	11	3
158	-59	18	20	6
158	-15	19	26	8
157	20	13	69	6
158	-17	12	53	8
157	-9	14	-56	4
157	-30	24	-68	10
158	11	18	26	4
157	33	8	1	6
157	41	17	-41	-5
158	60	22	0	-15
158	65	21	13	-2
158	55	17	6	1
157	61	25	-6	-5
158	52	23	0	0
157	-39	10	-3	3
158	-56	7	3	-4
158	-22	13	14	-2
157	-15	17	12	3
158	-3	15	15	4
158	50	4	8	5
158	114	11	13	7
158	57	16	18	0
158	30	8	10	3
157	57	4	27	2
158	23	-9	60	3
158	25	-6	68	0
157	7	26	-7	0
158	45	44	-68	14
157	67	24	0	4
158	82	60	25	1
157	123	143	14	9
159	11	96	13	11
158	-109	10	-42	2
158	-174	14	-15	-14
158	-119	7	4	-6
158	-132	17	-7	-1
158	-128	17	6	2
158	-32	8	15	11
158	-67	17	26	9
157	14	14	20	4
158	42	13	28	2
158	45	2	9	2
158	80	10	10	7
157	47	9	18	0
158	37	14	13	-3
158	23	15	14	1
158	25	0	10	-2
157	24	5	15	-2
157	38	11	9	-1
157	33	5	9	1
157	13	3	12	2
157	-11	4	17	2
157	-5	10	23	7
158	11	10	17	2
157	-9	4	-10	3
158	-10	13	-38	-4
158	-1	26	-3	-8
158	-11	7	23	-6
158	-37	-7	1	-3
158	-31	-15	-11	6
158	14	5	-7	9
158	-39	49	14	2
158	-120	68	4	-9
157	-56	92	35	-6
158	16	43	58	6
157	7	-10	-46	15
157	32	19	-94	14
158	146	28	-10	-7
158	196	25	3	-9
158	117	11	-25	-2
157	42	-6	-3	-5
158	-30	7	-3	0
158	-24	14	12	3
158	35	9	16	7
158	80	10	21	5
157	28	15	24	-3
158	-10	23	17	0
157	12	34	29	2
157	-25	37	41	-6
158	-15	34	25	-4
158	-37	33	-26	4
157	-43	23	-13	7
157	-82	12	5	3
158	-57	9	10	1
158	86	5	34	-1
158	135	-5	25	1
158	77	-15	27	0
157	4	-6	18	-2
158	-23	4	16	0
158	-79	13	26	0
157	-163	32	21	8
158	-136	38	25	9
158	-21	47	8	11
158	-30	65	-36	7
158	-22	58	-26	-6
157	15	56	-18	-4
158	23	52	-16	1
158	41	33	12	7
157	17	24	-4	13
158	27	11	0	11
157	-3	-4	-4	-3
158	-13	-9	1	-8
158	18	-7	9	7
157	47	-9	13	10
158	16	-10	44	10
157	3	-2	36	6
157	3	47	17	2
158	-36	82	23	0
157	-50	19	25	-12
157	-58	9	2	-12
158	-10	16	21	-5
157	55	-13	5	-2
158	174	-3	-18	0
157	179	-6	16	2
158	108	10	8	2
157	127	12	2	8
157	46	15	2	2
158	-126	24	8	-4
158	-194	24	5	0
158	-2	16	-3	1
157	82	10	4	0
157	43	27	4	-4
158	93	16	19	-8
157	82	18	21	-1
157	20	16	23	3
158	-65	15	14	9
157	-23	27	10	9
158	-86	18	7	10
157	-219	5	7	9
158	-143	26	40	-2
158	-11	24	53	0
158	20	-2	-21	6
158	34	12	-90	-4
158	100	21	-10	-10
157	20	23	18	-1
157	-11	22	-11	7
157	-35	21	10	2
158	-17	18	-12	-2
158	19	28	0	1
157	-8	42	8	0
158	48	29	-3	-2
157	13	11	3	0
157	32	-8	3	-1
157	62	8	13	-1
158	54	9	22	2
157	46	-21	20	0
157	43	11	20	-1
158	48	48	14	-3
157	9	73	1	2
158	44	65	6	3
158	10	52	8	1
158	-23	58	21	7
157	3	24	52	15
157	-10	-8	46	15
158	-12	-30	-26	3
157	-43	-1	-70	-5
158	-120	5	-13	-6
158	-69	2	-4	-2
158	20	21	-4	0
158	26	12	20	-5
157	93	37	14	-8
158	57	62	37	-3
157	92	30	31	0
157	64	-4	2	2
157	-66	-2	-16	4
158	-103	-21	15	6
158	-68	-31	0	9
158	-4	-12	-42	6
158	-22	31	1	-2
158	27	61	27	9
157	1	79	51	7
157	-10	58	43	1
157	-21	-2	6	0
158	-53	6	-16	1
157	6	-1	-25	8
158	22	5	-5	9
158	96	11	-1	-2
157	101	13	6	-5
157	79	16	28	-4
157	54	5	24	-2
158	-24	16	16	10
157	-59	15	22	6
157	-32	24	17	0
157	-12	21	2	3
157	-36	14	15	2
157	-17	6	10	-1
158	-11	15	13	-3
158	10	17	13	0
157	-8	7	3	4
157	-29	18	2	2
157	26	31	-2	2
157	22	26	8	6
158	13	9	2	4
157	-8	14	1	1
158	-6	18	-1	-1
157	36	25	22	-2
158	100	21	69	1
157	146	14	53	2
158	87	2	-47	7
158	41	1	-94	4
158	-7	15	0	-1
159	-84	30	16	0
158	-92	34	15	-3
158	48	19	13	-1
157	97	31	-16	-4
158	-86	21	34	-6
158	-197	19	26	-1
158	-202	26	21	6
158	-206	19	26	6
157	-96	33	12	2
158	110	33	9	4
157	183	17	-12	-13
158	167	19	-14	-6
158	121	42	-9	0
158	49	51	-3	-9
158	-8	22	9	-7
157	-9	14	20	-9
158	17	23	16	-2
157	7	12	33	-3
158	45	25	43	2
158	30	16	33	9
157	46	15	14	7
158	48	12	-14	2
157	13	20	-15	3
158	0	14	-6	7
157	-14	1	1	11
157	-25	-1	14	13
157	-79	-5	34	5
158	-37	40	24	-7
158	-16	7	-31	-14
158	-53	-35	-59	4
158	-43	5	11	3
157	64	33	43	0
158	131	47	1	0
158	69	12	-35	-6
158	47	3	-45	9
157	-2	6	4	20
157	3	-5	2	12
157	29	-2	19	3
158	96	7	36	5
157	104	55	10	2
158	-13	79	-3	0
157	-45	19	-3	-9
157	-103	-4	28	-1
158	-144	27	21	4
158	-131	9	37	2
158	-25	24	35	7
158	-40	24	-12	-5
157	-67	15	-20	0
158	-19	9	21	1
158	-13	-1	30	3
158	27	18	19	4
158	-47	29	12	7
157	-50	47	-16	10
157	-5	31	-14	6
158	41	39	-1	11
157	69	38	17	1
157	92	16	10	-1
157	155	11	-10	-6
158	168	19	10	-6
157	120	-1	56	-3
157	44	-25	78	-6
157	10	-41	1	0
157	-46	-31	-80	0
158	-88	26	-19	-7
158	-31	36	28	-5
158	43	25	-5	0
157	-45	44	15	7
158	-77	42	1	9
158	-87	18	5	6
158	-93	23	11	-2
158	-6	12	6	-4
158	33	9	11	-1
158	136	27	6	2
157	134	24	26	6
157	94	26	8	4
157	59	29	-3	7
157	-34	29	15	4
157	-49	28	29	-3
159	-20	30	12	-4
157	61	34	12	-4
158	49	38	16	-2
158	-12	35	2	3
157	-49	39	4	-4
158	-97	44	-4	-16
158	-132	47	10	-12
157	-66	28	34	7
158	49	-6	39	3
158	35	-26	17	11
157	7	-16	-6	14
158	-71	3	-19	0
157	-9	29	10	-3
157	81	44	56	1
158	20	-5	15	2
158	80	3	-66	4
158	83	8	-62	12
157	104	-3	2	2
157	91	12	19	6
158	42	16	-2	7
158	-38	21	-23	3
157	-143	13	4	-7
157	-48	8	28	-15
158	-35	8	15	-5
157	-10	23	15	-8
157	-8	14	9	-2
159	-39	14	13	4
157	-8	9	11	6
158	-15	-5	6	4
157	-11	-18	10	4
158	-16	-42	16	9
157	28	-21	13	5
158	24	38	9	6
158	20	86	15	-1
158	13	98	14	0
157	18	58	25	6
157	32	33	35	0
158	28	30	22	6
158	33	10	-19	6
157	11	26	-47	4
158	34	13	-17	6
157	23	14	17	4
157	12	11	42	6
157	4	6	28	5
157	-25	22	-20	-2
158	-31	4	2	-3
158	-38	5	10	1
158	-6	23	-9	-2
158	13	30	8	-6
157	27	27	-2	2
158	14	25	-1	1
157	20	37	14	-2
157	-10	67	15	-3
157	-35	65	12	1
158	66	40	4	3
158	124	25	0	-1
158	55	15	14	6
157	-30	-3	64	3
157	-59	-27	66	2
158	-47	-62	-22	14
158	-83	-85	-70	7
158	-87	-44	3	0
157	26	0	8	-2
157	33	41	-9	-3
157	39	37	6	-1
157	12	31	-8	-6
158	29	52	25	-6
158	120	50	26	-4
158	-34	53	35	14
157	-140	44	47	20
157	-71	39	32	1
157	-54	23	-13	-10
159	-62	13	-44	-3
157	42	9	29	-10
158	179	12	21	-11
157	165	33	-73	3
158	101	40	-46	1
157	18	29	9	6
158	-38	16	4	1
157	25	-1	14	0
158	14	4	23	-3
158	12	25	18	-3
158	31	-4	5	1
157	-2	-15	4	3
157	22	14	16	4
157	13	39	19	1
158	-30	11	28	-3
158	-58	-17	25	-1
157	-18	-5	10	18
158	3	-7	-4	12
157	-8	6	-3	8
157	-24	7	26	2
157	-54	13	53	4
158	-72	32	25	6
158	-77	72	-10	2
158	38	60	-1	6
158	181	46	2	4
157	207	100	-8	-1
158	40	30	0	-3
157	-72	15	2	-1
158	-5	34	3	2
158	-87	13	2	-4
158	-190	30	2	-5
157	-61	22	-2	-4
158	65	18	2	-2
157	71	-4	14	0
157	42	-2	22	3
157	-10	-9	31	1
157	-26	27	20	0
158	-24	45	10	0
159	-37	-2	1	-4
157	-90	9	10	4
157	-68	8	17	12
157	12	8	23	-2
158	17	21	34	-7
158	82	15	-29	-1
157	127	8	-51	0
158	127	6	22	8
158	110	3	60	3
157	29	1	43	0
158	-7	-9	-50	10
157	-14	-16	-67	8
158	-7	-5	19	-3
157	-29	-7	-6	1
158	-16	7	-18	5
157	-12	23	-6	0
158	-28	40	-14	-2
158	-42	62	6	-3
157	-40	64	4	2
158	1	51	9	-1
158	-8	51	5	-4
158	3	41	12	-6
157	35	16	24	5
158	72	10	35	10
157	71	11	37	5
158	25	4	14	7
158	8	-3	-4	5
157	34	1	0	7
158	53	-3	25	11
157	18	6	4	4
158	5	10	-17	2
158	-54	11	-13	2
157	-138	3	10	0
158	-88	-1	33	7
158	29	3	42	4
157	4	13	28	-3
157	-9	36	-2	-18
157	-5	28	6	-16
157	-22	25	17	1
158	75	44	24	-3
157	56	47	23	1
158	32	39	47	0
157	65	23	30	-3
157	90	14	-65	9
157	111	23	-68	7
157	89	10	-6	-3
158	69	5	-9	1
158	-56	11	-10	0
158	-177	12	15	-2
158	-289	8	21	-8
158	-278	18	50	-1
157	-104	30	45	7
158	-31	-14	15	6
157	70	-22	-11	2
158	104	10	-18	-2
158	167	29	-8	10
157	217	57	-4	4
157	169	124	26	-6
158	105	201	32	-10
157	-14	106	19	-1
158	-28	-2	8	7
158	-11	-6	0	6
157	-20	-44	0	2
158	-42	-74	-17	1
157	-92	-52	-3	4
157	-59	-15	7	3
158	44	-17	8	3
157	89	-10	14	6
158	84	-8	2	13
157	59	-20	-3	10
157	19	-8	-8	-1
158	-54	-1	4	-8
158	-115	9	25	-4
158	-48	16	43	1
159	-35	63	31	8
158	-32	77	-30	1
157	13	10	-23	-19
158	19	10	13	-15
157	15	30	-3	0
158	-66	33	8	-1
157	-89	42	30	3
157	-60	20	77	0
157	-25	14	69	4
157	38	7	-47	11
158	83	26	-73	9
157	133	44	8	-1
158	223	42	30	3
158	228	23	25	4
158	132	9	13	6
157	45	17	-16	11
157	-47	8	10	6
158	-150	2	14	3
158	-237	14	6	3
157	-96	19	10	8
158	15	10	10	2
158	-39	15	15	-6
158	-52	20	10	-10
157	-85	30	14	-11
157	-71	29	4	-4
158	-10	21	8	0
157	25	28	16	4
157	26	33	6	9
158	63	34	17	4
158	64	22	-19	-3
158	79	28	-83	-3
158	113	28	-28	-6
158	67	11	28	-4
157	36	5	3	-1
157	56	4	15	1
157	74	5	13	11
158	24	13	17	7
157	-39	17	29	7
158	-50	21	41	4
157	-41	19	44	7
158	-29	15	-11	14
157	-27	24	-14	13
157	-21	25	25	4
158	18	11	30	-1
157	2	1	5	6
157	-38	-2	-1	7
157	-15	-4	-17	-5
157	-33	24	-22	-13
158	-87	59	5	-15
157	-104	44	0	-8
157	12	15	6	-6
157	99	16	6	-1
159	42	-3	11	2
158	2	12	5	4
158	-45	28	8	9
157	-3	5	14	9
157	27	7	12	6
157	69	11	15	1
157	93	6	4	1
159	42	-9	14	2
158	34	-1	12	2
159	31	27	12	6
158	29	34	11	-1
157	8	24	7	-2
158	65	70	14	2
157	144	112	10	-3
158	146	23	13	-2
159	94	-52	14	-1
157	13	-42	13	6
158	-119	-21	24	7
157	-226	4	53	-3
158	-141	-1	63	-5
158	-100	28	-3	-1
157	-164	44	-106	1
158	-135	24	-70	-1
158	-106	29	24	-2
157	-16	24	6	0
158	66	29	24	10
158	151	19	30	9
158	275	6	0	-6
158	222	10	-19	-4
158	102	24	-28	6
158	19	23	13	1
157	-80	27	9	-3
157	-155	22	17	1
157	-131	20	17	-2
157	-4	32	6	2
158	36	35	8	4
158	-10	54	2	-2
158	20	62	12	2
157	5	46	17	-1
157	30	33	19	-2
158	8	29	16	-1
158	-29	14	18	1
158	30	0	13	3
157	27	10	10	4
158	15	6	3	4
157	29	6	-4	3
158	41	11	3	1
158	-7	5	9	3
158	-47	-2	14	5
157	-14	-6	2	2
158	83	-1	-3	4
157	122	4	1	2
158	86	-18	2	3
157	66	-19	3	-4
157	-24	43	14	-5
157	-114	90	34	-6
157	-54	61	36	-6
158	34	17	-1	1
158	-45	17	-31	2
158	-30	17	5	-1
158	-71	11	14	-2
157	-199	17	4	3
157	-126	17	12	4
158	-14	14	6	6
158	28	-1	11	4
157	37	2	12	7
157	92	11	17	10
157	121	17	14	10
158	139	14	3	3
157	75	8	6	0
157	26	15	20	5
158	-4	24	43	6
158	-15	25	31	11
158	4	18	-4	8
157	-21	28	-31	0
158	-6	22	-4	-4
157	-13	3	10	-16
157	24	-16	2	-16
157	18	-14	18	2
158	-7	40	31	1
157	-35	52	4	2
158	-102	-1	-67	16
157	-113	-7	-35	9
157	-23	4	5	-2
158	131	15	-17	2
157	118	19	10	2
157	104	13	41	-3
158	45	26	107	1
158	10	42	126	-3
158	27	42	-12	-3
158	-16	29	-142	-1
158	23	33	-69	-4
157	12	26	5	4
157	-8	13	-34	1
158	-34	14	-4	-2
157	14	32	-3	-1
157	80	82	-2	1
157	31	66	21	9
157	43	10	27	8
158	-32	30	42	14
158	-191	16	21	11
158	-236	-3	24	4
158	-89	17	20	-16
157	72	55	25	-15
158	91	69	22	-5
157	118	67	26	-9
158	27	53	31	0
157	-28	-1	20	6
157	36	-16	13	13
157	10	-59	41	24
157	17	-73	70	32
157	28	-30	20	10
157	7	-15	2	-24
158	13	-10	-31	-16
157	11	6	-71	-1
158	11	11	-17	-1
158	49	11	-2	-1
158	34	15	-10	2
157	-7	4	-7	2
159	-68	17	-6	6
158	-133	17	6	1
157	-145	11	0	-5
157	-52	17	4	-7
157	61	22	37	-4
157	53	33	64	-1
157	136	28	35	0
157	168	15	-40	11
158	124	22	-35	2
157	68	16	31	-1
159	-25	30	20	-8
158	-38	57	24	-17
157	-42	44	15	0
158	-5	33	-20	6
157	-7	24	-1	7
157	7	22	17	13
157	31	26	20	8
158	21	23	-2	4
158	29	24	-24	1
158	8	24	-3	3
157	64	17	31	2
158	112	0	10	-1
158	42	8	-26	0
157	-16	19	-19	-1
158	-97	2	17	4
157	-171	-23	47	5
158	-218	-25	60	2
158	-149	31	14	2
158	-24	60	-68	5
157	32	17	-29	2
157	74	8	-19	0
158	48	23	-58	5
158	46	26	8	7
157	-24	50	15	10
158	-3	51	18	0
157	108	52	28	-4
158	80	64	10	-1
158	32	25	28	2
158	-23	-11	27	-1
157	2	16	33	-9
157	23	27	24	-7
158	-61	-20	30	-8
157	-62	1	30	-7
158	32	104	8	-2
157	95	152	7	1
158	55	29	12	7
158	22	-10	14	11
158	1	1	10	6
158	-5	-46	19	10
157	-32	-10	33	11
158	-93	-10	37	7
158	-92	4	18	-1
157	-41	10	-6	-1
158	17	8	-21	16
158	69	9	-13	1
157	111	4	-9	-1
158	122	4	-16	-5
158	108	2	-1	-12
158	42	28	11	-3
157	-17	39	-8	-6
158	-32	39	-22	-1
158	-48	34	-2	1
157	-48	25	16	-2
158	-32	8	8	-3
157	-9	-27	11	-1
158	24	-68	21	1
158	35	-54	28	9
158	25	-26	20	12
157	15	-31	-1	8
157	5	-14	51	4
157	-12	8	60	-2
157	-40	28	-40	-11
157	-22	50	-97	0
158	16	54	-30	5
157	74	55	20	-4
158	181	41	1	4
157	148	37	23	2
158	46	53	33	5
158	-2	52	30	-4
157	-94	43	4	-4
158	-168	33	-8	-2
157	-178	29	29	-3
158	-154	31	39	1
158	-177	29	21	4
157	-135	23	-11	16
159	-59	22	14	10
157	5	19	35	10
157	113	15	-49	10
158	165	24	-90	9
158	204	18	-2	9
158	154	15	15	4
157	75	19	-7	2
158	44	5	17	2
158	30	6	18	-2
158	-11	10	24	-7
158	18	0	14	-16
158	152	1	15	-13
158	106	-4	12	4
158	35	0	11	3
158	5	19	15	3
157	-116	9	4	-9
158	-191	14	8	-3
158	-160	51	4	4
157	-65	59	7	-9
157	-61	51	20	2
158	-20	44	30	-2
157	19	43	25	2
157	17	42	11	9
157	82	17	19	11
157	64	19	21	5
157	5	21	17	0
157	-27	13	27	-2
158	-16	15	25	3
157	-65	9	0	2
158	-33	7	-22	-2
157	68	0	-26	4
157	72	6	-12	6
157	80	11	-3	8
158	48	17	4	7
158	-16	14	9	4
158	-79	10	4	4
157	-72	8	-6	0
157	-20	6	8	0
158	23	6	16	1
157	108	0	28	-3
158	213	8	30	0
158	150	6	6	-8
157	-4	-4	4	-3
157	-96	4	-11	13
157	-229	21	25	2
158	-323	5	68	-1
158	-142	-19	-6	1
157	105	-19	-54	9
158	150	16	-15	-7
157	213	74	7	-12
158	265	50	10	1
158	192	8	18	-13
157	94	35	-25	-2
158	65	109	-30	-2
158	-29	108	18	-3
158	-160	51	23	-5
158	-109	27	39	-6
157	10	22	53	4
157	27	26	65	10
157	-32	15	36	15
157	-57	21	-39	15
158	-126	55	-34	7
158	-128	61	16	7
158	-50	2	-37	14
158	-26	-52	-35	7
158	-92	-95	11	2
157	-89	-93	6	-3
159	8	2	21	4
158	55	-5	-3	6
158	126	-36	-11	-6
157	137	14	-11	-8
158	110	30	-1	-14
158	69	35	16	-7
157	22	15	9	-3
157	-7	15	11	12
157	-6	84	23	14
157	9	99	32	6
157	13	42	15	-6
158	25	27	-2	-5
157	21	37	5	-2
157	2	33	31	-4
157	-15	17	31	5
158	-11	6	13	-1
157	-23	4	-1	4
159	-27	5	6	1
157	-29	17	20	-1
158	19	10	3	9
157	65	-1	-3	3
157	43	18	-4	6
157	67	29	6	5
158	53	35	13	8
157	-48	35	9	2
158	-137	16	14	-1
157	-78	19	4	2
157	-8	20	0	4
157	-64	18	1	7
158	-30	24	3	2
157	-6	18	9	4
157	-1	17	25	2
158	25	15	39	-4
158	18	12	16	-12
158	28	1	-15	-6
159	-6	9	-13	12
157	-56	14	-9	10
158	0	8	0	6
158	55	8	5	2
158	13	2	5	4
157	65	9	12	2
157	120	8	18	0
158	55	-1	55	-1
157	-28	-5	28	-6
158	-19	-2	-45	-3
158	-15	15	-19	-1
157	-29	33	30	2
157	17	44	6	-7
158	-53	47	10	-14
157	-27	56	10	1
157	10	49	-22	0
157	-4	24	-17	4
158	31	5	0	10
157	36	-1	5	11
158	53	0	3	9
158	48	-5	23	5
157	49	0	61	11
157	55	52	65	2
157	72	82	-27	-5
158	9	11	-65	-4
158	-8	-9	4	-19
157	27	13	6	-9
158	-43	6	-11	14
157	-28	21	25	4
158	47	15	27	-3
158	34	5	-32	1
158	-31	-3	-22	-4
158	-28	30	24	2
158	-30	63	15	2
158	-44	31	16	-2
157	-14	22	19	3
157	19	32	13	7
158	23	21	7	0
158	48	30	13	0
157	49	32	13	1
157	74	21	9	-3
157	152	14	20	4
157	129	8	8	4
158	47	7	4	0
158	-72	-1	5	1
157	-262	6	15	2
159	-366	8	21	2
157	-244	10	12	4
158	-70	6	5	6
157	13	7	-6	4
158	57	22	5	2
157	117	34	15	0
157	125	32	17	7
158	63	28	22	9
158	35	40	26	-5
158	52	45	24	-7
158	69	63	2	2
158	43	66	-4	-3
157	-18	42	16	-6
158	-133	10	-16	3
158	-142	-9	-24	1
157	-44	-41	4	-1
158	-18	-68	-13	-1
