File Name: not saved
Channel 3: 'EKG', 11550 values, raw ADC, no filters.
Channel 4: 'FCR_EMG', 11550 values, raw ADC, no filters.
Channel 5: 'FCU_EMG', 11550 values, raw ADC, no filters.
Channel 7: 'ECU_EMG', 11550 values, raw ADC, no filters.
Channel 8: 'ECR_EMG', 11550 values, raw ADC, no filters.

157	85	-15	1	-4
158	68	-13	11	2
158	14	-21	27	10
157	-31	10	38	11
157	-67	43	48	1
157	-65	57	35	0
158	3	86	8	6
157	11	94	-10	-4
157	-14	17	8	2
157	41	-41	15	-1
157	57	-61	-17	-5
158	-21	-56	-30	8
157	-13	-22	-12	9
158	-3	19	-10	0
157	-31	47	-29	-8
157	51	-4	-26	-3
158	34	-1	-11	-8
158	66	9	-10	6
157	77	-11	-6	10
158	19	15	1	13
158	82	34	-1	13
158	69	30	4	9
157	9	9	10	4
158	-78	10	20	-6
158	-224	0	27	2
157	-223	26	27	-6
158	-22	66	33	-6
158	32	69	28	-7
158	49	43	8	-8
158	126	-17	-3	-5
157	98	0	-1	-3
157	111	24	5	9
158	2	54	20	7
157	-150	72	13	6
158	-129	61	-10	3
159	1	70	-7	5
158	77	42	10	2
158	60	21	3	-2
157	34	-18	-5	-3
158	-21	-76	-16	-3
157	-93	-137	8	-6
157	21	-92	24	-4
159	166	-9	5	3
157	-28	-6	25	4
158	-156	88	23	8
157	-190	96	29	9
157	-172	19	28	9
158	-15	32	17	1
158	83	14	17	2
158	173	0	1	6
158	228	13	-7	5
158	179	9	-9	4
158	123	62	-4	-4
157	49	139	-9	-6
158	-14	99	-1	-5
158	43	57	16	-15
158	89	37	32	-8
157	49	22	27	4
157	-95	-14	32	4
158	-133	-42	48	11
159	-42	-10	34	12
157	-36	-11	25	5
158	-31	38	9	0
157	-23	97	16	-2
157	-1	120	14	-2
158	15	87	-23	4
158	-23	72	-42	8
158	-61	103	-16	1
157	-126	-47	16	3
158	-94	-183	34	2
157	42	-140	15	1
158	62	-59	1	-2
158	45	-20	80	-15
158	80	-51	55	-18
158	69	-20	-94	0
157	38	24	-66	4
158	-37	56	20	3
158	-4	72	-23	7
157	58	37	-19	4
158	22	39	-22	5
157	9	29	0	0
157	8	29	34	7
157	81	28	-11	5
157	106	24	-36	6
158	2	21	-9	10
157	-139	16	47	7
157	-288	17	12	0
157	-231	8	-5	-7
157	43	21	-2	0
158	92	34	-1	0
158	92	23	20	6
158	241	2	14	4
157	159	17	31	8
157	50	16	22	12
158	-28	-26	8	3
158	-84	-74	6	-5
157	46	-50	-6	-7
158	72	19	-1	2
158	25	113	10	0
158	32	213	-5	-5
157	-5	170	-1	-6
159	-4	86	22	-1
158	-49	69	27	-4
158	-55	6	38	-1
158	35	-38	30	5
157	106	-57	33	2
157	91	-53	34	4
158	38	17	28	9
157	-5	-28	15	8
158	-125	-22	-24	7
157	-150	26	-49	3
158	-51	-1	-31	-4
157	-32	17	-3	-10
158	-120	4	-7	-14
158	-149	22	-15	-6
158	-61	24	-26	-2
158	103	22	-11	6
158	105	18	-18	11
157	43	7	-29	10
158	38	18	-4	0
158	4	11	11	-4
157	41	14	21	-4
158	16	8	38	-4
157	14	8	62	3
157	1	-22	74	6
157	-34	-19	75	1
158	-22	-18	67	7
157	-13	-32	43	15
157	-31	30	20	17
157	3	131	3	10
157	15	186	8	-6
158	-15	122	4	0
158	128	95	-11	2
158	68	39	-3	0
158	38	-44	-10	-1
158	203	-54	-52	0
158	77	-63	-71	-3
158	-22	-37	-35	-11
157	-35	-11	30	-4
158	-92	50	60	2
157	-106	120	37	-1
157	-5	33	16	-2
158	61	-3	10	-6
158	-11	29	7	-2
157	11	-23	3	9
158	28	-37	0	7
158	35	-25	8	6
157	13	36	5	12
157	-15	27	4	15
157	-47	-26	8	10
157	-97	-2	6	4
158	-42	-3	0	2
158	-19	2	-13	-2
158	-86	-30	0	-12
158	-51	-42	18	-14
158	205	16	-13	-4
158	209	113	-38	-1
158	62	120	-21	0
158	36	24	6	2
157	-89	7	4	-1
158	-39	-3	2	-1
158	12	9	50	-6
157	13	30	56	-5
157	34	27	-22	4
158	3	40	-55	4
157	-43	30	19	7
157	-75	48	44	9
158	-88	72	8	15
157	-52	69	-4	15
158	27	58	16	10
158	47	50	25	2
158	-4	28	-27	-1
157	-93	21	3	-8
157	13	-7	14	-3
157	124	-57	-5	3
158	140	-74	8	-2
157	104	-28	-3	0
158	31	24	-4	5
157	50	-7	-5	4
158	67	2	15	1
158	39	-30	13	9
157	-45	-39	25	6
158	-104	-15	47	-13
157	-104	3	53	-13
157	-38	89	47	-14
158	16	126	25	-11
157	29	96	9	-2
158	13	61	-2	-6
157	46	54	5	2
158	97	23	16	2
158	40	4	23	3
158	-16	-16	15	3
158	-101	-2	10	3
158	-233	43	22	-1
158	-174	42	17	0
157	-3	36	6	6
157	19	52	0	6
157	-22	43	-3	10
158	-31	33	-9	7
158	-39	26	-10	12
158	-56	-17	2	12
158	-83	-68	17	9
158	68	-95	19	9
158	231	-26	-9	9
158	188	-3	-31	3
157	199	-13	-8	-3
157	158	-16	15	-2
158	24	-39	5	2
158	30	-24	14	-5
159	44	-21	30	-8
157	7	14	-11	-2
157	-33	106	-20	2
158	-85	166	10	-2
157	-106	96	1	-5
158	-138	26	8	-4
157	-118	9	8	-7
158	-18	13	-17	-9
158	67	28	-38	-3
158	138	14	-20	-1
157	147	38	13	-4
158	140	44	8	7
157	66	61	-1	10
157	-30	36	4	4
157	-25	-19	14	-1
157	-18	-39	10	-1
157	24	-15	5	5
157	62	-9	7	11
158	37	-62	6	9
158	108	-31	13	10
158	-10	-12	19	2
157	-169	-32	25	1
158	-2	33	37	-2
157	-174	127	38	0
158	-324	128	-3	3
158	-105	106	-39	2
158	11	125	-27	7
157	95	108	-16	2
158	0	77	-7	-4
157	-53	46	0	-5
158	-77	15	40	2
157	-97	-65	105	1
158	-19	-76	111	0
157	24	-28	64	2
158	91	-62	35	-1
159	148	-27	18	-2
158	161	-29	-10	-2
158	142	-24	-34	-1
157	130	41	-14	1
157	85	89	33	4
157	28	120	44	2
157	-66	49	-19	7
157	-70	24	-62	6
158	-87	-19	2	-2
157	-170	-13	12	7
157	-183	24	-7	9
157	-100	19	28	3
157	56	101	25	0
158	150	64	6	-9
158	227	-52	-42	-6
157	282	-70	-44	-4
157	308	-45	9	-8
158	203	-32	-5	2
157	43	-33	-54	9
158	-33	-15	-35	5
158	-69	12	-1	1
158	-183	8	-8	1
158	-119	10	8	9
157	37	-13	10	7
157	-47	-27	15	-5
157	-75	-33	24	-4
157	-168	-23	13	-1
157	-111	81	12	1
157	-32	179	9	-3
158	-109	126	24	2
158	-15	39	24	14
158	21	43	8	11
157	71	19	-14	9
157	53	12	-6	6
157	-8	5	13	4
157	-70	0	4	4
157	-53	13	17	3
157	56	19	29	3
157	19	39	24	-2
157	10	35	17	4
159	3	46	11	6
157	-19	45	6	-4
158	-79	46	-13	2
157	-52	29	-34	7
158	58	20	-28	0
158	53	33	10	-8
158	77	13	18	-15
158	75	6	33	-9
158	-24	-12	50	2
157	-147	-10	50	3
157	-45	32	59	2
158	40	56	28	2
157	92	15	-11	-12
157	210	-54	-21	-17
158	205	-71	-1	-7
158	231	14	14	-6
158	22	56	23	-2
157	-144	24	-3	6
158	-107	104	-42	8
158	-105	124	-19	10
158	-34	54	11	6
157	78	14	26	0
158	174	-17	19	0
157	114	-44	19	1
157	72	-73	15	0
157	-65	15	5	4
158	-79	28	5	6
158	191	-15	1	11
158	54	-21	2	16
158	-71	-39	-12	14
157	-73	20	4	7
157	-183	-29	21	8
158	-53	-45	21	7
158	10	-5	21	0
158	-95	83	30	-3
157	-146	136	47	-1
157	-16	96	32	-2
157	68	116	18	0
158	-15	92	-27	12
158	-53	71	-55	11
157	-123	44	-23	2
157	-133	35	-9	-3
157	-82	-42	-2	-5
158	-56	-75	10	-7
157	38	-11	-1	-10
157	93	-46	-11	-4
158	144	-35	-8	0
157	146	-35	-13	1
157	37	-58	-17	4
157	-9	-18	-13	3
158	7	-6	-6	11
158	13	4	8	10
158	18	30	50	2
157	26	66	78	-1
158	-24	110	57	-6
158	-70	74	55	-1
157	-79	9	71	4
158	-2	29	87	0
158	78	67	58	-5
158	95	16	-48	-3
157	183	9	-61	-2
158	306	9	-18	0
157	411	9	-27	7
158	196	29	5	-6
157	-81	21	17	-5
157	-172	25	-14	2
157	-265	12	-32	3
157	-116	39	-21	3
158	96	53	-25	7
157	33	28	-30	6
158	-54	4	-7	2
158	-95	4	-11	0
158	-158	12	-5	-1
157	-96	22	4	-2
158	-131	23	8	0
157	-37	52	14	6
158	4	82	13	10
157	-49	30	12	6
158	59	28	40	6
158	37	-2	53	0
157	85	-47	36	-5
158	92	19	8	2
157	97	101	5	8
157	34	61	16	9
158	-116	-27	0	-7
157	-142	-17	10	-12
157	-96	-43	30	-4
157	-18	-87	2	-5
158	-2	-31	-37	-1
157	17	11	7	4
158	-8	24	14	10
158	16	47	-17	1
158	13	19	2	6
157	-19	18	1	7
158	67	-15	20	-7
158	161	-55	19	-1
157	219	-86	31	2
158	215	-55	48	0
157	107	39	21	0
157	-43	73	-11	2
157	-73	83	-18	6
157	-111	8	-11	6
158	-134	83	-39	6
157	-20	146	-44	9
158	-33	65	-32	-1
158	-60	39	-28	-7
157	-15	49	-6	2
158	110	81	22	4
157	99	55	38	5
157	-2	44	43	10
157	18	-24	37	7
158	57	-14	49	2
158	135	37	51	-2
157	99	-2	26	-13
158	49	-14	13	-7
158	-82	-19	12	-2
158	-125	25	3	-2
158	-104	38	-3	-3
158	-167	9	7	1
157	-116	2	9	11
158	-106	6	16	5
158	-40	23	25	-2
158	-16	12	-7	-3
158	10	15	-36	5
158	35	18	-6	-2
157	10	8	18	0
157	51	1	-19	2
158	-8	-3	-30	0
158	17	6	2	1
157	63	-9	32	-4
157	72	-14	12	2
157	89	4	-46	7
157	82	15	-31	10
158	35	16	21	10
157	-61	34	66	4
157	-38	82	87	-22
158	5	114	23	-10
157	7	26	-2	7
157	8	-35	4	4
158	36	-1	-11	14
158	158	-3	4	8
158	270	25	10	10
157	154	0	11	9
157	9	40	8	2
158	-49	83	18	-1
158	-260	30	10	-5
158	-253	69	3	6
158	1	60	21	1
159	-28	-34	17	-5
158	-140	-79	13	-4
158	-49	-24	-13	-6
157	-15	40	7	-10
157	47	0	16	-10
158	105	-25	-25	-4
158	181	6	-22	2
158	283	0	-6	9
158	224	33	6	-2
158	68	85	22	0
157	-164	76	29	1
157	-311	83	27	0
157	-162	92	8	3
157	37	33	4	5
157	-31	-68	12	9
158	9	-102	3	6
158	28	-48	-12	10
158	1	-9	-30	5
157	36	22	-15	9
157	16	57	8	10
157	104	53	14	6
158	43	63	48	0
158	-23	28	69	-1
157	-53	-18	35	9
158	-119	21	-31	4
158	-114	4	-35	-7
158	-112	-19	-13	-18
157	-101	4	-21	-8
157	-22	15	29	-1
158	63	2	49	2
157	74	-11	12	8
158	93	-2	4	-2
157	161	-8	6	-7
158	216	-5	12	-10
157	127	4	18	-1
157	33	74	22	4
157	41	140	2	3
157	0	81	-12	2
158	-37	51	-2	-1
157	109	65	-2	4
157	75	36	-1	7
158	-33	9	3	9
158	36	32	3	11
158	-128	31	0	20
158	-243	-1	-9	19
157	-114	-13	-11	6
157	-39	-40	0	-5
157	-28	-15	25	-10
159	-30	24	53	-11
157	-40	-4	49	-9
157	-6	20	-2	-7
158	28	85	-3	-4
159	72	87	46	-4
157	65	44	-3	-2
158	34	-45	-82	8
157	9	-59	-45	11
157	-48	5	2	9
157	90	-3	-23	-2
158	146	-41	-21	-14
157	10	-49	8	-7
157	-119	-30	39	-5
157	-199	-24	40	-1
158	-21	40	25	5
158	5	151	49	1
158	-24	144	35	6
158	57	59	9	1
157	75	31	34	4
158	89	9	40	1
158	-21	-11	16	2
157	-21	22	19	1
158	-57	94	29	1
157	-129	91	9	4
158	-30	20	-10	4
157	39	15	-11	8
158	101	70	0	7
158	181	70	6	11
157	171	-48	16	2
158	139	-53	0	0
158	36	8	-20	4
158	-87	-55	-1	-5
158	-57	-103	-7	-2
157	-39	-83	-2	8
158	-43	-22	-4	9
158	-36	9	1	9
157	97	11	10	13
158	266	30	1	9
158	195	32	-8	6
158	63	50	-39	5
157	-8	25	-34	4
158	-161	15	-4	1
158	-212	37	0	-3
158	-90	29	2	2
158	-42	34	16	-1
157	-85	27	29	-12
158	-92	32	36	-4
158	-40	37	48	0
157	12	40	48	-8
157	111	38	7	-5
157	89	10	4	-5
158	-60	-3	42	-14
158	-123	5	16	-3
158	-124	13	19	-3
157	-56	38	32	-7
158	100	38	11	3
157	101	17	8	2
157	92	-14	15	-1
158	35	-8	37	-1
158	-133	25	6	0
157	36	22	-21	6
157	83	74	-17	9
158	30	141	-7	10
158	60	84	17	13
157	13	-11	7	2
157	30	1	-14	2
158	12	-15	-39	9
157	16	-31	-9	4
158	5	-19	49	1
157	-4	-20	43	-6
157	-36	-3	-32	-1
158	-125	61	-79	7
157	-107	120	-27	1
157	-17	50	-12	1
157	12	9	-5	0
158	70	40	39	-4
158	116	43	35	-1
157	38	18	1	4
158	0	-41	-23	8
158	-8	2	-14	7
158	-19	46	-4	5
158	27	-22	20	7
157	152	-15	73	0
158	168	-2	77	-4
158	26	-15	51	-9
158	28	-13	36	-2
158	-49	-11	18	2
157	-145	16	5	5
158	54	55	10	12
157	140	58	26	3
157	68	16	3	-6
157	1	-12	-18	-9
158	-154	0	-12	-6
158	-146	11	-15	-4
159	17	21	-16	-5
158	7	33	-13	-6
157	10	49	12	-5
158	38	49	8	-3
157	8	33	20	-1
157	-8	40	43	5
157	-38	42	29	5
158	-9	71	17	4
158	-73	93	-8	-1
158	-143	92	-29	3
158	36	84	-20	19
158	112	75	-28	18
157	-1	-5	-36	14
157	-3	-101	-19	7
158	-100	-115	-12	7
158	-87	-154	12	9
158	-39	-39	30	9
158	-30	-19	47	6
157	53	-73	54	-4
157	21	17	31	-15
157	43	-22	1	-13
157	80	18	0	-1
158	91	43	5	0
158	61	38	-5	-1
158	48	54	15	2
157	69	32	13	9
157	85	42	-2	1
157	31	27	-8	-9
156	-71	36	-10	3
158	-36	38	4	2
158	15	70	6	3
158	1	31	-7	2
157	27	-12	-20	-3
158	125	1	-15	2
157	193	-10	-16	7
158	85	22	-4	9
158	-19	54	-1	5
158	-30	66	5	4
158	-249	-1	4	4
157	-298	-22	-9	-6
157	-62	-5	33	-5
158	11	9	56	1
157	55	131	64	4
158	122	147	73	9
158	122	56	61	9
157	111	2	26	7
158	5	-7	9	7
157	-128	44	50	-13
157	-127	39	64	-40
157	5	-11	22	-36
157	-19	-51	-15	-15
158	-105	-45	-20	-13
159	-34	68	-19	-5
158	87	84	-58	11
158	171	13	-63	7
158	126	17	-25	8
158	-4	1	-41	9
157	-155	1	-26	-1
158	-104	0	50	0
158	61	-16	49	7
157	72	11	10	2
157	-5	33	-2	7
157	-56	14	-15	8
158	-9	10	1	9
158	17	19	15	10
158	7	7	28	9
157	54	11	39	10
158	120	-1	10	10
157	112	-33	-32	7
157	19	-59	-4	4
158	-33	-47	47	6
158	-39	-43	7	6
157	43	-34	-40	9
158	70	41	6	7
157	24	181	47	3
158	23	224	35	2
158	-3	116	35	-1
157	2	102	24	2
158	-16	97	35	3
158	-58	-17	37	2
158	-55	-120	-6	-4
158	-32	-71	-29	-6
158	18	3	-46	-6
157	72	-8	-23	-6
159	-10	10	3	2
157	-54	13	10	3
158	-40	25	34	1
158	-62	30	25	-1
158	-7	15	-9	-1
157	11	11	-22	2
158	86	22	2	-3
158	78	26	9	4
158	38	6	3	7
158	26	12	10	4
158	-93	-6	22	3
157	-125	-1	29	6
158	-35	41	-6	1
158	-50	48	-18	-13
157	-115	21	-37	-7
157	-50	20	-44	-2
157	6	3	-16	3
157	74	-57	-19	10
158	53	-88	4	4
157	-50	-45	19	4
158	-12	131	12	6
157	64	210	23	2
157	59	62	29	1
158	43	18	30	-2
157	31	51	46	-10
157	172	15	40	-5
158	242	-12	14	-2
157	42	-66	27	5
158	-23	-9	21	2
157	12	7	4	-4
158	-2	-21	-7	1
157	-42	21	-33	-1
158	-19	0	-27	0
158	-13	24	-26	0
157	-11	24	-26	2
157	20	11	5	3
157	14	12	40	2
158	41	-2	72	9
158	-13	5	31	15
158	23	22	6	16
157	113	38	33	14
157	30	38	33	11
157	-44	46	42	-1
158	-110	17	39	-9
157	-98	2	6	-7
158	-74	36	-17	1
158	-63	64	11	0
158	42	42	12	-2
158	3	5	-1	-4
157	-64	11	27	-10
157	-73	37	4	-15
158	-7	29	0	-15
157	-17	18	59	-4
158	-63	25	49	0
157	15	16	-22	3
158	1	18	-48	4
158	56	18	-18	4
157	61	14	-2	4
158	43	26	-20	10
157	54	32	-17	13
157	24	22	-7	15
158	8	39	2	9
158	-47	42	13	9
158	-45	22	7	13
157	-72	-2	-6	10
157	-61	-7	-20	8
158	-1	6	-9	-7
158	38	-14	1	-11
157	107	2	-12	-8
159	192	14	-20	-12
158	239	8	-24	-5
158	98	12	-16	-1
158	-65	-1	4	-2
157	-250	-21	33	4
158	-287	-12	29	6
158	-63	27	8	9
158	102	18	-8	6
158	274	32	-31	0
157	282	79	-5	5
158	118	42	16	5
158	10	-49	20	0
158	-113	-126	37	-1
158	-128	-74	37	8
158	8	47	59	10
158	30	96	100	0
157	-110	195	92	-7
158	-91	176	29	0
158	2	43	-5	3
158	53	33	-45	0
157	36	-23	-55	-2
157	14	-8	0	-1
157	31	13	-1	11
157	-32	-3	18	11
158	-34	62	10	6
158	83	34	29	-2
158	114	-4	33	-6
158	11	-34	-15	-13
157	-101	8	0	-9
158	-231	14	2	-2
157	-184	-46	16	-7
157	-107	-22	5	-1
157	-51	-4	2	-1
158	131	27	-4	2
158	181	10	-27	7
158	194	30	-38	10
158	171	52	-34	2
158	43	17	35	-8
158	-17	9	55	-16
158	-2	38	32	-16
157	-78	28	-1	1
157	-52	7	-42	18
157	96	32	6	21
157	-7	9	26	13
157	-107	10	-1	4
157	-241	-9	13	-1
157	-320	-12	32	0
157	-135	-10	64	-3
158	45	-26	2	1
157	211	6	-59	2
157	296	33	-51	6
158	336	76	-53	5
157	246	142	-48	7
158	90	136	-56	14
157	23	22	-38	2
158	-83	-6	-15	4
157	-66	6	30	0
158	23	-8	102	2
157	-51	-8	138	4
158	-86	-41	147	1
158	-35	-22	98	-4
157	41	21	13	-10
157	-2	18	-27	-8
158	-68	45	-17	-14
158	-10	69	-22	-4
157	-16	29	6	3
157	-36	75	33	0
157	-35	69	2	10
158	41	42	0	8
157	25	26	47	-2
158	-26	-25	25	-1
157	-65	-52	-26	0
158	-97	-123	-21	-1
157	-95	-66	12	0
158	-152	1	43	-2
157	-62	-2	49	-1
157	-30	49	35	-5
158	0	57	-18	2
158	79	36	-49	16
158	11	18	-33	10
157	81	-18	-24	6
158	134	-27	-29	2
158	-21	-12	-6	3
158	52	2	6	0
157	300	60	-24	0
157	275	96	-27	9
158	144	101	-22	7
158	-6	69	-19	5
157	-44	56	-1	-5
158	-22	73	24	-11
158	-21	45	48	-1
158	10	48	68	3
158	-55	32	43	0
158	-56	18	-25	9
158	-118	-11	-48	8
157	-114	-34	-20	10
157	3	-15	-27	14
158	3	18	-17	10
157	44	40	-2	11
157	44	-16	-8	8
157	-7	-40	8	6
158	-20	-10	29	-4
157	-130	17	68	-11
158	-222	-24	73	-20
157	-176	-24	71	-21
158	-86	20	64	-9
157	3	10	34	-6
158	90	24	20	-2
157	106	12	9	0
157	159	19	2	3
157	158	16	-2	4
159	44	1	0	1
157	-3	-12	-1	0
158	24	-34	-2	-1
157	70	-14	-9	3
158	27	63	-14	5
157	-5	168	-7	9
157	24	151	-13	6
158	71	87	-24	15
158	84	77	-43	17
157	51	15	-52	12
157	13	25	-14	3
158	-58	40	47	-7
158	-127	6	35	-12
158	-130	11	5	-11
158	-78	-13	35	-6
158	-52	-15	65	-4
158	8	-19	44	7
157	85	-43	25	9
158	99	-30	48	7
157	31	-25	27	4
157	-56	-46	-7	1
158	-35	-29	-25	4
157	26	-18	-7	-3
158	90	24	47	-9
157	99	124	53	-9
158	63	158	8	-3
158	54	70	-84	9
158	-6	-3	-67	10
158	-35	28	21	6
157	8	28	-10	9
157	31	5	-29	3
158	-10	10	8	2
157	-31	8	36	3
157	-32	5	41	4
158	-92	1	21	9
158	5	5	-9	3
158	78	5	-53	1
157	20	11	-26	-5
158	177	26	-6	-7
158	124	23	-30	2
158	-48	17	6	-1
158	-86	21	16	3
158	-178	26	24	10
158	-198	15	48	4
157	-115	1	40	8
158	11	-22	28	6
158	-3	-6	10	-1
158	23	31	9	-3
158	60	23	-12	-6
158	44	11	-15	-8
158	-3	0	-10	-12
157	-97	11	-20	-8
158	-72	25	-15	2
158	-99	25	-14	-1
158	-38	33	-4	-2
158	121	24	17	0
157	145	18	38	4
157	172	17	30	3
158	180	24	20	2
157	105	24	36	0
158	44	23	73	-7
158	-16	25	70	3
158	-39	21	28	9
158	-101	-21	19	13
158	-176	-61	4	8
158	-128	-33	-9	2
157	-103	-26	-3	4
158	-61	-11	14	1
157	9	62	23	-4
158	106	129	11	-2
157	276	154	-24	1
158	359	87	-30	-5
157	315	5	21	5
158	178	-7	27	8
157	92	21	5	6
158	8	37	9	11
158	-87	12	42	9
158	-190	26	28	1
157	-208	-11	-33	-2
157	-206	-25	-28	7
158	-178	5	-36	4
158	-27	16	-22	-7
157	-45	43	3	-7
158	-10	18	17	-10
157	46	8	20	-4
157	79	3	-6	9
158	24	5	25	1
157	-44	0	29	-1
158	-148	4	4	-8
157	-452	29	-4	-10
158	-305	62	-9	1
157	-21	28	2	10
157	88	-13	-3	10
158	179	29	-2	9
158	198	29	2	11
158	309	35	1	8
158	236	16	-22	13
157	74	-2	-27	10
158	13	8	17	0
157	94	41	45	-9
157	211	74	54	-14
158	117	48	49	-14
157	52	34	20	-4
158	62	54	8	0
157	133	34	-9	4
158	71	-71	-36	10
157	19	-86	-26	-4
159	3	-25	8	-16
157	-127	-15	16	-6
157	-201	-37	0	-4
158	-245	52	0	3
157	-214	142	29	11
158	-91	24	17	18
158	50	-52	2	13
158	-39	-3	13	0
157	-68	24	10	3
157	-21	15	9	-6
158	-73	15	-5	-18
158	-24	-4	-13	-17
158	22	31	-8	-15
158	20	45	-14	-9
158	45	26	-17	4
157	58	20	-1	12
158	7	-17	14	9
158	24	21	14	7
157	16	33	21	9
158	0	-3	62	3
157	-12	11	16	11
159	-2	34	-85	13
157	67	12	-47	4
158	61	5	-23	9
157	46	0	28	9
158	14	59	114	13
157	-64	167	93	16
158	-71	156	49	5
158	36	84	71	-4
158	37	-13	128	3
157	-24	-26	32	4
157	-19	14	-30	-6
157	-23	-2	1	-14
157	-61	-12	-20	-7
158	-143	-17	5	-6
158	-140	-24	-3	4
158	-111	2	-35	10
158	-113	30	-32	8
158	-44	-12	12	4
158	143	-29	22	-6
157	262	-8	10	0
158	306	4	15	0
157	349	9	-3	2
158	319	24	-12	-4
158	246	24	-22	-7
158	147	25	-14	3
158	62	26	4	11
158	53	9	-7	24
158	-4	8	-25	28
158	-103	19	-19	13
157	-194	14	-2	0
158	-379	14	-12	-2
157	-145	29	-25	-6
157	15	17	-26	-5
157	-112	-10	6	-10
158	-2	-44	24	-9
157	-120	-52	0	-7
158	-163	-2	-5	-9
157	-30	55	31	-4
157	38	94	43	-3
157	88	126	27	0
158	154	108	-7	6
158	191	43	-26	5
157	82	14	1	6
158	-25	-23	-9	3
157	-162	-6	1	-1
159	-124	12	-9	2
158	15	10	-21	4
157	-13	37	-4	7
158	-45	39	8	4
158	-14	52	19	8
158	4	60	2	6
158	-14	57	24	-3
158	-51	9	47	-4
157	-137	-49	74	4
158	-233	-81	64	11
157	-158	-11	32	-4
157	-39	50	21	-5
158	22	71	21	-9
157	180	103	19	-17
158	357	67	-23	-13
158	412	82	-5	-8
157	300	42	9	1
157	53	-21	-17	5
158	-82	-82	-31	10
158	37	-148	-23	4
157	-5	-108	-3	-5
158	-115	-45	49	-4
158	-63	-30	88	-5
157	-25	5	40	-2
157	63	51	29	-5
157	107	92	35	2
157	-10	47	24	14
157	-129	6	-2	16
158	-158	28	-97	19
158	-213	18	-128	19
157	-114	35	-47	13
158	36	-7	-21	7
157	183	2	-10	3
157	219	26	45	-3
158	89	39	71	3
157	25	50	102	-2
158	-14	15	48	-17
157	37	95	3	-22
158	-88	120	15	-17
157	-70	42	32	-10
158	52	16	48	-5
157	-34	-7	18	11
158	-99	-34	-9	15
157	-115	-41	-37	17
157	-38	-10	-19	13
157	-3	56	16	6
157	-148	145	16	-3
158	-149	120	-2	-7
158	0	26	4	-2
158	-1	15	37	-6
157	1	-11	20	-3
158	122	4	-22	-4
157	236	7	-52	0
157	203	-1	-37	1
158	101	6	-19	6
158	63	17	15	7
157	40	40	61	8
157	19	34	23	3
157	-27	9	3	-1
158	-95	-9	12	6
158	-78	-20	6	5
158	-20	-70	4	4
158	34	22	-11	3
158	38	62	-45	10
158	-21	-26	-62	9
157	-25	16	-43	9
158	-10	1	-11	6
157	34	20	39	-2
158	57	49	81	3
157	133	41	97	1
158	140	66	58	2
157	36	81	12	-6
158	-42	74	18	-6
157	-150	22	31	-5
157	-48	22	24	-6
157	126	18	-9	-3
157	51	-15	15	-3
158	-14	-83	6	7
158	-101	-89	-57	9
158	-226	-22	-53	4
158	-179	-1	-28	-2
158	-38	18	-21	-7
158	44	47	-41	-2
157	74	48	-22	4
158	85	41	7	7
158	31	35	15	-5
158	-10	6	1	-7
157	-31	-24	-9	0
158	-19	-47	-7	6
158	-43	29	35	9
157	-73	38	72	5
158	-11	-20	18	-4
157	32	41	10	-8
157	136	27	20	-6
158	199	30	28	-1
157	117	33	27	4
157	-64	22	23	10
158	-182	19	44	7
157	-201	-7	19	3
158	-95	19	1	8
158	132	19	19	13
158	258	42	49	11
157	286	62	24	6
158	192	75	-36	2
157	98	1	2	4
157	-49	-67	49	6
158	-123	0	6	8
157	-142	94	12	7
158	-231	84	12	5
158	-125	36	3	5
158	84	45	15	-2
157	154	9	2	-6
157	44	27	21	4
158	33	44	37	7
158	-86	41	38	4
157	-104	25	22	-5
157	91	24	-1	-16
158	105	30	-47	-22
157	89	5	-73	-20
158	28	-15	-67	-15
158	-34	-55	-44	-11
157	-104	-34	9	-4
158	-150	-27	44	0
158	-94	-53	44	1
158	35	-28	28	-1
157	116	-1	20	8
157	96	61	29	15
157	37	131	22	11
158	-5	82	-6	17
158	-29	51	-9	14
158	-71	79	-8	8
157	-23	59	-26	-6
157	-13	19	-18	-6
158	-39	6	6	-4
158	52	9	6	-4
158	154	-3	22	5
157	98	25	45	8
157	-23	39	47	8
158	-109	5	-3	6
158	-47	-24	-62	7
157	64	2	-13	5
158	22	11	27	3
157	-71	-4	21	10
157	-191	0	8	18
158	-138	-2	-44	14
158	-48	-2	-78	-4
158	58	-6	-71	-10
158	142	-3	-18	0
158	207	25	103	4
158	288	91	202	-5
158	202	85	138	-5
157	82	43	57	-26
158	-75	102	31	-39
158	-167	66	-23	-22
158	-248	-79	-11	-2
157	-188	-119	0	2
158	-56	-68	5	0
157	-59	-33	-10	4
158	87	-47	-64	6
158	246	-27	-60	3
158	66	13	-31	2
157	-56	25	-21	11
158	-43	26	-33	5
157	-106	-8	-13	4
158	-15	7	23	7
158	110	59	29	11
157	50	79	6	23
157	-22	64	10	21
158	-21	88	19	19
157	-66	112	20	19
157	-87	48	47	16
157	-34	11	41	6
157	42	-18	38	-8
157	88	35	35	-19
157	106	60	-6	-18
157	122	-3	-46	-16
158	139	35	-27	-10
158	65	24	-12	-8
158	37	4	-26	1
157	98	10	-7	8
158	-15	5	8	6
157	1	28	15	9
158	85	38	41	1
158	-56	54	54	-3
158	-35	60	16	-5
157	5	42	-41	3
158	-78	14	-44	16
157	-73	-13	23	0
158	-149	-70	21	-8
157	-202	-29	25	-4
158	-125	11	25	13
158	-54	-17	-16	10
157	-59	1	16	-3
157	24	-34	66	-5
157	-56	-38	129	-9
158	-9	-2	69	-13
158	327	24	-8	-13
157	151	26	-7	-6
158	-84	43	-20	-8
158	-62	62	-16	-5
158	-19	54	-14	-4
158	80	39	-19	5
158	69	28	-27	10
158	55	33	-33	9
157	21	28	-28	9
158	7	19	8	7
157	22	-12	48	12
158	-30	-13	28	12
157	-39	-20	-4	20
157	-82	-66	-8	16
157	-79	-65	-26	6
158	42	28	-14	2
158	108	208	7	-2
158	177	331	7	-6
158	241	215	16	-2
157	135	96	-11	2
158	48	-64	7	3
157	-8	-259	17	12
158	-38	-52	-22	11
157	-75	27	-9	7
158	-278	-70	6	9
157	-252	-46	22	7
158	-86	-49	-1	8
158	-61	37	-12	16
158	-20	13	19	16
157	32	-6	22	3
158	100	9	-23	-13
158	192	95	-13	-20
158	212	131	58	-11
158	129	26	29	-12
158	20	28	-25	-18
157	-38	10	4	-24
158	-86	38	28	-33
158	2	54	19	-31
157	46	7	10	-4
158	-17	16	-19	6
157	12	9	-8	10
157	0	6	2	10
157	-23	6	20	11
158	-32	1	1	16
158	-72	2	-68	11
158	-64	6	-18	8
157	141	5	58	9
157	186	18	81	9
157	12	29	120	7
158	-101	33	138	4
157	-366	-2	81	9
158	-557	-43	0	11
158	-456	-18	-58	5
157	-134	8	-41	-1
158	197	0	-2	-8
158	305	39	-3	-20
157	414	139	-17	-22
157	452	148	-40	-12
158	213	38	-31	2
158	74	-13	-11	8
158	67	-5	57	7
158	48	2	88	9
157	56	-10	34	7
157	69	1	16	13
158	35	20	-27	10
157	-55	0	-46	2
158	-50	3	-17	10
157	-50	8	10	7
158	-48	29	-18	19
157	-54	10	-44	27
158	-69	-10	-25	10
158	-59	-15	-38	-4
159	-60	-19	61	-24
158	-33	7	136	-31
158	-78	44	47	-13
158	-125	93	2	3
158	-28	64	-26	-1
157	205	9	-30	-2
158	313	-12	18	-6
157	227	-47	15	-6
158	136	-101	16	-4
157	-186	-15	4	-4
158	-362	66	-29	-1
158	-5	57	-37	6
157	-6	115	-51	12
158	-167	101	-20	1
157	-69	86	5	6
157	-132	59	34	9
158	-56	21	69	8
158	-126	15	39	3
157	-193	-7	20	-1
158	-140	-46	5	5
158	-105	-66	-10	5
157	80	28	7	6
157	182	69	-13	0
158	260	46	-16	4
158	364	6	1	4
158	477	-40	4	9
158	266	9	2	7
157	97	60	-2	2
157	21	9	7	6
158	-56	-36	21	0
157	-53	17	29	4
157	-97	27	-26	3
157	-24	32	-78	13
158	-40	50	-22	8
158	-10	45	44	10
157	-46	12	47	9
158	-70	-32	83	7
158	-47	32	97	7
157	-103	12	87	0
157	-86	-43	28	2
158	-60	-34	-39	-7
157	-8	-40	-1	-2
158	3	0	-14	-5
157	-24	33	-19	-13
158	-7	97	10	-19
158	74	105	25	-11
157	112	25	4	-16
157	124	51	-64	-24
158	96	72	-97	-13
157	7	52	-74	-15
158	-156	38	15	-8
157	-193	43	112	-1
158	-45	80	136	4
157	-87	36	88	5
157	-47	-51	-49	5
158	48	-28	-148	10
158	124	-5	-29	1
158	159	-5	79	2
158	-7	28	-34	9
157	-72	26	-91	8
158	-114	71	15	9
158	-101	47	121	10
158	4	-27	174	7
157	-51	-86	59	9
157	-67	-36	0	16
157	-38	0	20	19
158	-107	-58	-12	18
157	-28	-2	-15	4
158	54	8	-34	-14
158	96	15	-1	-10
158	174	34	-7	-1
158	93	23	-1	-1
158	81	17	18	6
158	54	19	-8	10
158	59	58	-19	15
158	85	22	-13	24
158	14	-13	-12	20
157	67	-2	-20	34
158	94	0	17	44
157	58	-48	47	34
158	-48	13	82	26
158	-134	65	81	11
158	-51	1	27	-7
157	89	46	7	-21
158	117	183	-16	-29
157	112	255	-65	-45
158	99	90	-64	-80
158	93	-28	-28	-100
158	109	20	39	-73
158	53	47	64	-46
158	10	27	-5	-22
158	-45	-23	6	2
157	-41	-22	0	2
158	-154	-26	-31	13
158	-266	-9	-16	12
157	-120	-7	-12	17
157	-50	-1	-17	25
158	-29	4	-17	18
158	50	-10	8	19
158	55	3	-40	29
158	23	17	-90	27
158	-71	23	-81	22
158	-89	4	-42	27
158	-42	1	5	24
157	-95	-2	-3	24
157	-75	19	14	32
158	-116	11	115	29
157	-129	8	253	12
158	-41	41	193	-6
157	79	64	43	-9
158	155	85	52	-7
157	60	40	13	-12
158	186	-37	-22	-18
157	241	-67	-7	-10
158	122	-19	-10	-1
158	59	22	-14	-4
157	-59	30	-27	-3
158	-32	31	-18	0
158	0	29	-7	7
157	10	23	-12	15
158	-26	13	6	7
157	-147	6	20	8
158	-127	-10	9	13
157	26	24	39	1
157	151	71	7	10
158	129	60	-46	13
157	138	44	-51	-5
158	112	46	-50	4
158	-149	5	11	-1
158	-228	-56	-14	-6
158	-46	-66	-37	-14
158	-11	0	-14	-23
158	9	11	-43	2
158	81	6	-31	5
158	59	36	-23	-4
157	72	21	19	-18
157	36	33	46	-19
158	4	25	94	-6
157	-18	31	122	1
158	-64	31	65	5
158	-62	26	53	5
158	-62	32	26	6
158	14	34	18	0
157	72	31	-1	-6
158	84	9	-12	-15
158	11	-2	1	-10
157	-47	-18	-38	6
157	37	-23	-46	12
158	-20	-12	-20	7
157	-43	28	-15	10
158	38	17	-23	5
157	92	14	-11	2
159	289	108	-3	3
158	187	160	7	7
158	-166	54	5	14
158	-115	-27	1	16
158	-32	-5	1	19
159	-48	0	-40	17
158	-36	-18	-19	6
157	-67	-10	20	2
157	-78	50	29	0
158	-99	2	79	0
158	-48	-52	161	-1
158	-38	-17	94	-6
158	-44	51	-88	1
158	99	121	-15	11
157	234	75	89	17
157	195	96	13	18
158	161	63	-2	4
158	66	-5	25	-13
157	-141	52	73	-29
158	-183	52	35	-10
158	-70	26	-46	4
158	-18	-22	-70	-1
158	-33	-34	-140	-4
158	-20	-11	-121	2
158	-51	-1	-29	12
158	-95	-19	32	16
158	-178	-14	136	17
157	-143	-3	145	11
158	-27	11	37	-1
157	35	14	42	-14
157	136	-26	64	2
158	236	-7	-15	4
158	254	65	-50	-5
157	112	140	-40	-11
158	-19	63	-24	-13
158	4	34	12	-2
157	97	75	0	-4
158	3	-70	10	-15
158	-60	-31	32	-27
157	-25	-44	6	-30
158	-37	-111	33	-32
158	3	-2	66	-14
158	0	-41	48	8
157	40	-3	18	6
158	60	1	-5	4
158	56	6	-46	11
157	43	36	-41	23
158	-11	25	39	25
157	7	49	38	26
158	26	40	-8	11
157	-9	45	-18	-7
158	-131	25	-34	-9
158	-291	9	-65	-14
158	-298	-16	-90	-18
157	-89	-3	-59	9
158	155	16	-6	13
158	288	28	-19	2
159	434	56	-29	7
157	407	79	-23	-7
157	190	87	-64	-8
157	-56	48	-67	2
158	-356	22	21	6
157	-377	15	208	9
157	-118	27	150	19
157	-33	-2	35	18
158	-115	-2	53	17
157	-104	50	1	25
157	-63	59	24	17
157	-5	42	-7	14
157	-66	-14	-26	4
158	-207	-53	-23	-2
158	-172	6	-29	-3
157	-87	72	-6	8
157	36	33	-39	7
158	186	-41	-13	0
157	316	-4	20	-1
157	466	50	82	-5
158	465	60	122	-3
157	319	100	105	-5
158	162	145	61	0
157	92	100	21	-5
157	-23	42	39	-13
158	-168	19	32	-10
157	-81	10	-16	15
158	-150	28	-45	20
157	-244	-34	-12	3
158	-89	-61	12	6
158	-158	1	14	15
158	-140	-26	23	23
158	-57	-79	5	30
157	-28	-41	2	37
158	0	-39	8	16
158	8	-13	-6	0
157	-3	5	-43	-13
159	-110	-6	-58	-23
157	12	12	-24	-33
157	157	-4	-56	-67
158	89	-18	-60	-87
157	-96	3	-26	-55
158	-95	99	-18	-14
157	74	232	36	-13
158	49	222	37	-8
157	46	93	8	2
157	65	-142	-3	18
158	5	-260	-29	24
157	-3	22	-53	18
158	0	37	-22	5
158	15	-12	72	2
157	35	64	36	13
158	37	-23	8	15
159	25	33	43	21
158	1	14	20	20
158	-13	-16	41	18
158	-32	0	23	16
157	-51	-12	4	15
157	-44	-33	-8	16
157	-1	-51	-7	15
158	51	-4	69	18
157	57	22	52	16
158	-14	9	-4	15
157	-55	41	-7	18
158	-61	80	-31	10
158	-100	48	-52	-5
158	-63	51	-29	-5
158	18	13	60	-1
157	111	54	121	-23
158	220	138	31	-17
158	266	67	-64	-9
159	145	75	-27	-16
158	-2	91	98	-4
158	-154	38	110	2
158	-196	-17	53	3
158	11	-27	40	12
158	0	6	-15	21
157	3	16	-27	17
158	196	-4	-10	16
157	163	-44	-20	18
158	-5	-36	10	37
158	-186	42	80	38
158	-190	48	69	-6
157	-108	-20	-33	-37
157	-80	63	-3	-51
157	62	69	-3	-48
158	108	42	-68	-53
157	11	52	-52	-46
158	-130	22	-36	-33
158	-56	15	3	-30
157	50	-4	1	-4
158	29	6	-4	10
158	-19	-83	-6	19
158	-289	-172	-18	22
157	-313	-51	-17	13
158	-90	165	-3	16
158	-60	344	15	25
157	31	437	9	11
157	82	404	14	12
158	300	375	0	19
158	660	88	-15	13
159	717	-440	-8	10
158	379	-667	-16	9
157	-20	-267	7	16
157	11	-66	62	4
157	-122	-147	18	-13
158	-200	106	-11	-8
157	-175	17	30	3
157	-151	-80	28	7
158	-49	-20	31	10
158	-40	11	42	15
157	75	45	55	9
158	91	-9	2	4
158	41	0	-68	9
158	-67	-57	-58	6
158	-115	-24	-60	-10
158	-144	-2	-51	-18
158	-107	-16	-15	-13
158	-28	38	25	0
158	-125	48	85	4
158	-140	67	88	3
158	-53	40	60	4
157	31	30	59	8
157	10	73	66	13
157	-19	42	57	2
157	-10	69	17	-13
158	205	191	-20	-17
157	243	266	-13	-7
157	-54	85	24	1
157	-75	-73	42	10
158	-41	9	33	16
158	-24	-1	-35	22
158	-28	-35	-86	18
158	-45	-45	-18	8
157	-46	-21	43	12
157	-70	60	1	12
158	-18	69	-52	1
157	11	50	-86	-5
158	44	55	-89	-4
157	48	29	-63	-4
157	-14	11	-42	-12
157	-155	6	-14	-1
157	-183	79	26	27
158	31	222	71	27
157	158	152	87	8
157	133	21	70	7
158	181	8	-10	1
157	106	-25	3	-6
158	4	-37	64	-23
158	40	30	16	-63
158	-93	143	51	-91
157	-92	-135	-22	-71
157	37	-510	-127	-32
157	69	-260	-17	-1
157	12	51	49	22
158	-146	14	83	42
158	-199	-29	174	52
158	-214	23	160	35
158	-84	123	69	19
158	81	144	51	24
158	51	-50	-21	9
157	-29	-149	-27	-17
158	21	-164	14	-33
158	212	-274	-14	-39
158	276	-51	19	-15
157	269	174	13	-7
157	398	306	-60	0
158	186	570	-73	15
158	55	541	-54	16
158	174	357	-77	16
158	-170	-18	-46	11
158	-459	-241	-35	29
157	-353	-141	-75	36
158	-158	-120	16	19
158	35	-150	89	10
157	127	-27	37	7
158	114	71	24	-4
157	181	-41	-28	-4
157	386	-34	-49	11
157	289	20	14	22
158	22	-8	2	21
158	-101	-59	37	20
157	-236	90	57	22
158	-329	126	29	11
158	-456	8	-21	3
157	-303	-42	-47	-1
158	-117	-55	-10	-24
158	-7	-32	13	-47
158	57	-166	3	-39
157	288	18	-39	-19
157	694	177	-20	-8
158	493	75	63	-1
158	333	96	161	7
158	130	25	151	15
158	-124	15	58	8
157	-221	-38	-16	0
157	-436	-108	-21	11
157	-243	-95	-27	6
158	15	2	-75	-1
157	-49	82	-26	-1
158	-157	98	41	-4
157	-237	68	28	1
157	-122	19	-19	2
158	-21	58	-26	2
157	0	33	-20	6
158	185	33	-31	7
157	131	16	-37	-3
157	129	24	-29	-2
158	-150	48	23	2
157	-373	64	70	-1
157	-172	84	49	-1
157	-164	15	-1	9
158	10	-22	-17	28
157	154	-33	-7	30
158	278	-48	21	25
157	263	-24	34	21
158	126	80	28	11
158	60	74	16	3
158	19	57	12	2
158	18	86	-20	-5
158	-6	-17	-34	-37
157	-34	-23	2	-54
158	-126	41	60	-48
157	-110	62	95	-17
158	-176	60	-38	5
157	-164	120	-90	9
157	-36	179	-50	21
158	-2	72	-56	38
157	133	-127	-23	53
158	225	-226	16	43
158	243	-46	82	20
158	38	-19	210	-4
158	-80	22	264	-25
158	349	137	63	-36
158	505	-90	11	-16
157	224	-217	-15	-16
157	-60	-105	-27	-26
158	-251	100	28	7
158	48	99	-20	22
158	70	106	-15	20
158	-137	131	-67	23
158	-170	47	-105	-5
158	-223	-45	-156	-61
157	-228	-171	-192	-43
158	-310	-36	-175	28
158	-192	90	-41	50
157	-221	101	249	54
157	-231	59	247	37
157	-22	38	6	-29
158	207	3	65	-77
158	161	22	30	-79
158	-131	120	-8	-72
157	-126	60	88	-65
157	-31	8	-19	-31
158	47	148	28	14
158	181	163	28	36
158	583	229	-41	43
157	823	295	-95	21
157	431	90	-125	15
157	-33	-50	-75	21
158	-146	-210	-57	21
157	-383	-311	19	19
157	-251	-207	56	3
157	213	-7	27	-9
157	118	-102	77	-19
157	24	-143	97	-5
158	-101	-105	-8	-6
158	-146	-41	61	-2
158	-128	36	116	14
158	-141	-33	41	22
158	-117	-44	31	28
158	-136	-73	-36	17
157	37	-44	-31	22
158	141	-9	31	25
157	45	38	18	17
157	-102	80	-6	13
159	-10	151	15	11
157	-28	113	-2	12
158	-52	86	16	3
158	211	155	49	9
158	335	155	0	20
157	256	65	-12	15
158	99	31	-49	5
157	243	109	-71	8
158	231	119	-109	9
157	86	261	-66	2
158	161	427	66	-4
158	72	303	23	-13
158	-45	-17	-10	-11
158	-284	-348	38	-10
158	-431	-358	102	-7
158	-368	-173	111	2
157	-541	-270	37	5
158	-541	96	27	4
157	-549	177	-57	7
158	-806	35	-160	8
158	-394	211	-135	-1
157	59	8	-66	-1
157	438	-130	16	4
157	753	-404	56	11
157	408	-91	64	14
158	-234	49	42	8
158	-357	-27	81	7
157	220	383	110	8
158	224	440	51	7
157	-8	437	-19	-15
157	-90	-86	-44	-24
157	327	-480	-9	-35
157	833	-391	18	-25
158	329	-164	-5	-16
157	-343	-102	-30	-41
157	-169	-96	2	-28
157	251	89	54	-21
157	442	45	88	-13
157	789	55	84	6
158	863	106	19	22
156	556	164	-35	47
158	-670	139	-40	58
158	-1538	98	-49	53
158	-776	-6	-18	50
157	185	-56	62	22
158	599	-98	115	-14
157	877	-203	24	-54
158	669	5	-81	-69
158	280	466	-97	-40
157	285	718	-89	-23
157	-147	334	-100	-9
158	-423	-198	-109	0
158	-408	-413	2	7
157	-436	-153	142	19
157	-466	-158	259	19
157	-518	-155	245	24
157	-622	187	174	30
158	-1153	28	35	29
157	-2053	68	-128	20
157	-1717	197	-118	-2
158	-202	277	-141	-35
157	442	308	-126	-33
158	28	377	-59	-6
158	474	200	-56	-10
158	1638	-422	-17	19
157	1308	-676	26	48
158	462	-397	43	-6
157	-1246	-117	45	-50
157	-1059	-193	28	-24
157	897	383	27	20
157	815	993	49	10
157	1293	669	47	-17
158	2209	120	8	-4
158	2639	-55	17	-7
158	1590	-92	59	-5
157	57	-295	75	-6
157	-164	-359	51	-1
157	-684	-390	49	-12
157	-395	-257	16	-23
158	57	-455	-51	-1
158	525	-594	-86	33
158	468	-213	-77	48
158	-1023	93	-36	44
157	-1424	496	-49	50
158	-1339	693	-6	28
157	-924	966	70	16
157	519	1096	73	10
158	877	135	22	-10
157	587	-956	21	-29
158	118	-955	28	-25
157	-571	-451	-22	4
157	-675	149	21	12
158	-958	566	45	-13
157	-1538	84	66	-39
157	-1975	-623	70	-22
158	-1273	-1079	7	9
157	-266	50	-21	29
158	554	656	-55	30
158	815	347	-121	33
158	746	718	-84	10
157	1316	134	-20	-22
158	445	437	-33	-5
157	-1002	476	-22	2
158	-1098	-580	-6	11
157	-411	-1076	74	-17
158	274	-1263	129	-32
157	1031	-1395	47	-20
158	2161	-243	-28	-6
157	2890	1384	-13	13
158	1593	955	-14	6
158	-1053	361	-105	3
158	-2029	-68	-35	34
158	-1134	-246	56	68
157	-1754	-269	-11	65
157	-2802	-142	-33	33
158	-1880	536	86	-38
158	-640	513	201	-77
158	1184	298	48	-26
158	2532	417	-105	0
158	3060	728	-48	-4
157	2282	570	42	18
157	-324	131	93	-1
158	-2157	-12	-6	22
157	-1301	164	-47	38
158	342	40	-72	9
158	1224	-253	-44	-30
157	2367	222	88	-66
158	1958	578	186	-70
157	319	310	283	-39
159	-888	-56	172	6
158	-1259	-1026	15	0
158	-1733	-1038	-95	-5
157	-2244	173	-159	8
158	-855	959	-86	29
157	345	620	-7	16
158	151	238	2	18
157	122	248	-18	29
158	1117	-82	-56	29
157	1017	138	-98	14
159	-548	-187	-34	-28
157	-254	-1193	9	-35
157	313	-988	-104	37
158	-298	-892	-194	112
158	-1221	-1702	-87	85
158	-1311	-1617	-12	23
158	112	-595	32	-57
158	1147	847	177	-77
157	1380	1886	194	-74
157	2082	1247	118	-62
157	2047	703	130	-6
157	-12	478	116	-10
158	-856	586	36	-15
157	79	334	-69	3
157	-462	-1052	-84	12
158	-2161	-1098	29	15
157	-2194	-164	5	-23
157	-2171	148	1	-16
158	-1653	-553	37	31
158	837	213	79	25
158	1449	1073	117	-15
158	1747	967	-4	-24
158	2440	492	-25	-1
158	2215	-926	-3	13
157	180	-1095	-108	57
158	-1398	205	-184	79
158	-481	901	-121	27
158	-156	1000	38	-43
158	13	1188	119	-45
158	-893	412	38	-24
158	-1424	-1090	-2	-72
158	-595	-1055	143	-36
157	261	-304	126	20
157	605	-247	-140	60
158	406	456	-116	78
157	681	744	11	54
157	199	340	-54	8
158	-224	-2217	-1	0
157	95	-2784	124	10
158	505	-246	132	9
157	621	1008	-149	81
158	-149	2198	-269	37
157	-1531	2480	-16	-35
157	-2247	1601	233	-111
157	-1311	305	205	-108
158	666	-12	7	-42
157	1765	-1580	71	-33
158	2081	-3338	25	17
157	1704	-362	-80	41
157	-114	451	-70	60
157	-731	-50	-95	52
158	-744	159	30	42
158	-682	-980	-9	49
158	-678	-527	-48	14
157	-1351	-222	18	7
159	-343	1495	-30	23
157	286	2024	47	-24
157	592	959	142	-65
157	1610	-41	129	-34
158	1979	-879	-25	-8
158	568	582	-73	7
158	-1377	1095	-69	23
157	-714	1384	-79	60
158	-500	503	-80	88
157	-714	90	-150	56
157	137	-256	-22	1
158	86	-2995	85	-42
157	-421	-456	51	-23
158	-1538	28	-14	0
159	-1345	-1781	27	-6
157	169	-460	49	-6
158	1549	440	79	-41
158	2138	1957	236	-111
157	1370	2090	132	-82
157	409	1972	98	-18
158	-850	139	117	-17
157	-1398	-463	63	-4
158	-177	-1653	92	-1
158	942	-3174	-114	50
158	72	-974	-262	57
158	-2020	-745	-264	-8
158	-1502	-332	-202	6
157	1394	434	28	23
157	2433	227	99	74
157	2110	387	-70	125
158	1573	-172	71	20
158	486	100	166	-106
158	-1339	427	110	-102
158	-3278	202	296	-25
157	-4000	105	127	-16
157	-2902	738	27	-49
158	449	1631	63	-79
158	2203	2514	-53	-20
159	3364	3171	-142	85
158	3433	309	-177	75
157	1805	-2856	-31	7
157	172	-2510	70	-45
157	-143	-1260	102	11
158	362	-266	-105	94
157	-1200	-292	-144	109
158	-2993	-417	-24	70
157	-3671	143	-77	-33
158	-3033	179	50	-39
157	-1412	247	128	-45
158	386	445	121	-105
158	3149	1356	60	-81
158	4000	643	19	-44
158	3203	-572	-31	41
157	1062	-2001	-6	81
157	-385	-2353	16	72
157	-60	321	-212	57
157	-1098	392	-57	6
157	-2727	-326	96	-19
158	-2215	93	111	-42
157	-2326	928	131	-36
157	-1632	1366	21	-20
158	848	1375	12	42
157	3303	2078	-101	33
157	2659	426	-64	-34
158	1579	-774	108	-38
158	2302	-1118	118	-33
157	735	-1488	-58	10
158	-318	86	-110	39
157	-1104	-654	-67	13
158	-1702	-1076	-125	47
158	-1769	160	-111	75
157	-2294	192	-31	11
158	-2132	926	55	3
157	-1531	215	149	-18
158	771	341	185	-102
157	2752	100	52	-67
158	4000	-626	84	6
158	3180	50	166	14
158	368	-584	-7	53
158	-1632	-83	-99	57
157	-2491	731	-67	3
158	-1439	1431	-117	30
158	-880	625	-116	49
157	-2215	-222	-85	55
157	-2174	100	-190	79
158	599	155	-132	-23
158	1127	731	166	-148
157	412	-358	321	-146
158	2132	-1763	177	-31
158	2025	-1187	-12	37
158	-724	-536	-58	48
158	-1412	5	-72	39
158	165	323	-22	2
157	586	2061	114	-34
157	1067	3507	24	-17
157	1536	734	-50	10
158	665	-2965	-5	7
157	-39	-3338	-132	80
157	-1222	-499	-70	95
157	-1567	54	57	9
157	-664	-451	79	-80
158	-950	-25	188	-115
157	-400	-125	42	-22
157	1476	695	-202	85
158	1404	1189	-139	49
157	-360	740	105	-88
157	-724	255	184	-85
158	-747	723	71	39
158	-1116	564	14	78
158	-1449	-324	-187	111
158	-1143	-217	-192	69
157	505	-343	49	-1
157	1243	-299	186	-40
157	1508	-409	231	-57
157	2720	1058	208	-81
157	2873	1883	238	-116
158	1543	-172	-12	-38
157	179	-2021	-64	-4
158	-1855	-2576	-63	47
158	-2247	-1050	-292	91
157	-1885	1013	-185	59
158	-1594	1652	-31	-9
157	-214	1232	163	-54
158	86	1300	150	3
157	-603	-23	-60	74
158	-427	-1488	-235	130
158	434	-315	-222	65
158	863	1553	15	-45
157	1618	1374	161	-133
158	2713	-648	174	-99
158	1765	-2395	56	-15
158	-573	-1754	18	19
158	-553	21	-8	18
158	-209	-338	58	-9
157	-380	-167	45	-11
158	-1377	1562	6	-18
158	-2621	536	-43	11
157	-1394	-634	-163	19
159	-772	710	-67	30
158	-1115	250	42	9
158	139	-1115	97	1
157	2433	563	108	-3
158	2159	1631	196	-30
158	823	4	92	33
157	920	-108	-118	60
157	105	-373	-30	23
158	-1639	36	74	-19
157	-2079	1198	-33	-14
158	-325	-589	-115	23
158	645	-723	-79	43
158	151	413	-62	27
157	1174	433	15	-64
158	1786	-837	112	-110
158	1370	-529	208	-28
158	1212	-387	70	-6
157	256	-749	-183	25
158	-817	339	-123	105
157	-1632	-1005	-112	79
157	-2306	-813	-138	19
158	-2367	-198	-23	-8
157	-1973	230	137	35
158	-969	2240	128	41
158	1268	3789	-69	19
157	2440	2713	-15	-29
157	1546	-845	201	-132
158	1488	-2232	285	-115
158	1422	-574	77	2
157	-789	-1150	-103	38
158	-1682	-1561	-27	-23
158	-263	-1642	9	-34
157	652	-652	5	-20
158	626	991	70	6
158	-743	428	-13	51
158	-2030	2576	-139	88
157	-1638	2086	-83	56
158	-961	-261	8	-35
158	371	-2232	141	-57
158	3239	-1424	1	-8
159	3654	1347	-167	0
158	1189	250	-114	-57
158	247	-357	-31	-41
158	369	62	-5	12
158	-345	178	7	-11
158	-3123	-244	195	2
158	-3805	-319	105	89
157	-2022	364	-98	88
158	-1201	-648	-151	49
158	1543	83	-133	48
158	3790	2068	58	14
157	2486	1028	73	-20
158	317	-860	43	-46
157	709	-2443	134	-18
158	1508	-480	39	-9
158	-127	833	73	-34
158	-931	519	111	-6
157	-1503	513	-118	39
157	-2754	-1144	-110	46
157	-2656	-196	110	-11
158	-1522	833	215	-79
158	-90	273	127	-45
158	1740	375	-75	84
158	2432	849	-203	94
158	1353	308	-77	-69
158	371	-1020	68	-106
158	861	-1358	112	-29
158	689	447	91	-4
158	-516	539	-18	19
158	-167	-764	5	6
157	269	-602	-43	-22
157	-161	-994	-49	7
158	-2076	-558	-25	96
157	-2707	708	-110	95
157	-1041	2020	-157	23
157	-510	1993	-38	-77
158	1500	1951	185	-90
158	3623	855	125	-10
158	2910	-1580	31	34
157	730	-2414	83	34
157	-423	-1836	74	-32
158	-335	-635	-7	-50
158	-1280	-948	-92	-9
158	-1999	278	-178	96
157	-2368	403	-254	106
157	-2192	578	-96	18
158	-938	-263	201	-1
157	48	-609	77	32
158	1632	2237	-144	57
158	2972	3546	-13	-5
157	2676	3463	161	-61
157	1958	205	199	-64
157	770	-2822	80	-10
157	-188	-3212	-2	17
158	-1201	-1998	-21	-34
158	-1833	-955	46	-98
158	-1106	167	184	-63
158	-1048	166	62	29
158	-2054	-123	-20	19
157	-1667	1157	26	-17
158	188	947	-2	-23
157	1562	1563	2	-28
157	2751	1707	-46	-19
157	3494	-275	-152	16
158	2590	-1462	-165	-7
158	67	-239	-87	23
157	-1185	-119	-84	68
158	-1989	-516	-65	4
158	-2302	-1476	127	-72
157	-1230	-1846	120	10
157	-1351	-39	-21	116
158	-1722	-668	67	64
158	-1761	-108	33	8
158	-323	734	-44	3
158	95	1996	60	60
157	656	2958	69	23
157	3314	2316	56	-33
158	3149	125	27	-10
158	2422	-2217	-64	25
157	1257	-1482	-37	30
158	209	-1552	3	-36
157	-958	-601	27	1
158	-3142	519	62	46
157	-3318	77	-17	54
158	-2685	-620	3	15
157	-1412	-132	253	-116
157	85	1192	184	-125
157	2202	1329	-55	-52
158	3462	446	-9	6
158	2082	421	-79	54
158	1125	1737	-97	45
157	316	400	97	-13
158	55	-1129	102	-55
158	920	-1584	-33	-40
158	1061	-1580	-137	-4
157	442	-94	-156	26
158	-640	187	-187	63
158	-1377	-813	-69	52
157	-2433	-1020	169	2
157	-3642	539	232	-24
157	-2303	1759	63	12
158	-1009	1689	-74	19
158	-166	866	44	-20
158	2358	-35	16	-7
158	4000	-397	-35	39
157	3102	-656	-35	61
158	786	-1462	-52	25
157	196	-249	-5	-63
157	-137	1153	4	-74
158	-339	-2	116	-43
157	-164	-1119	42	15
158	-782	-1169	10	8
157	-1797	-36	47	-35
157	-3078	-277	43	-2
158	-1720	194	42	39
157	-618	1954	-108	42
158	-240	1449	16	-33
158	866	1348	179	-55
157	1034	555	71	-9
158	945	-1634	-114	-1
158	758	-3036	-74	-12
159	2220	-764	-47	32
158	1695	344	-56	63
158	-176	224	-18	32
158	91	2082	-6	24
157	-97	1238	12	55
158	-941	477	-194	70
158	-1201	-2031	-102	36
157	-747	-1765	161	-64
157	-1058	346	106	-39
157	-903	-83	-109	111
157	-586	486	-24	64
158	-86	121	183	-82
158	395	677	291	-150
158	660	673	160	-72
157	2339	1449	-152	34
157	2341	1400	-128	-30
157	1044	-841	-100	-53
158	324	-1231	-25	45
158	-335	-1140	16	67
158	-955	-862	68	-6
158	-1398	-54	116	11
157	-707	797	34	55
157	-1160	829	83	20
157	-2053	273	-16	29
158	-1351	-67	-139	42
157	-165	-27	-75	-79
157	1464	436	52	-88
158	1630	1658	146	7
157	1135	726	115	1
157	63	-1444	2	-37
157	-2032	-1617	-18	-55
157	-2215	-723	-19	-4
158	150	463	-172	32
157	2481	148	-302	53
158	2554	-874	-140	29
158	1566	-782	142	26
157	-616	47	164	88
157	-2162	590	-11	47
157	-974	918	-7	-119
157	925	307	256	-206
157	2127	-114	180	-105
157	2718	-281	-47	-5
157	2055	-1426	132	-20
158	431	-878	60	40
158	-725	382	-97	88
159	-1326	366	-62	70
158	-1280	1684	-117	89
158	-1262	2340	-187	54
158	-1372	1449	-120	12
158	-1660	-304	63	-48
157	-1912	-589	162	-64
157	-1268	1657	232	-20
158	-1053	926	92	23
158	-717	-2888	-73	43
159	564	-3889	-71	84
158	1618	-832	-171	85
158	1358	603	-99	20
158	576	84	55	2
157	1002	407	91	-26
157	640	38	51	-27
158	32	-92	-49	42
158	278	1060	-60	75
158	377	2209	-32	34
157	876	2551	-24	-7
157	499	2393	15	-35
158	-278	-775	128	-85
158	-805	-3746	208	-114
158	-1373	-2225	231	-90
158	-1090	-1060	121	-46
158	-416	-1034	-83	-15
157	5	-591	-121	56
158	-458	-109	-82	80
158	-599	304	-175	80
157	172	197	-195	19
157	497	531	0	-33
157	1093	687	123	-22
157	1102	1060	100	-28
159	846	2021	41	-1
157	933	2271	-77	17
158	953	1332	-129	42
158	840	-681	-5	-7
158	132	-1514	138	-65
158	-762	-1147	63	-47
158	-1508	-739	-35	27
158	-1598	-1324	-91	29
158	-1282	-1664	-71	-20
158	-541	-177	101	0
158	499	711	27	98
158	562	764	-200	157
158	-221	271	-16	-14
158	-526	538	260	-108
158	-5	1041	196	-54
158	847	779	160	-52
157	844	582	109	-24
158	292	83	69	5
157	-918	-486	6	-12
157	-913	-348	-67	35
158	392	-155	-90	53
157	1342	-284	-197	36
158	1716	-1020	-122	10
157	635	-980	69	-7
157	-202	546	83	42
157	-1201	290	-25	73
158	-1488	-676	3	13
157	-1074	-289	43	-83
158	-549	275	43	-111
158	142	-136	68	-87
158	848	349	66	-11
157	1652	620	32	63
157	310	1886	-86	53
157	-1477	1708	9	-41
158	-776	-486	95	-34
157	1289	-584	-44	33
158	1632	-1870	-165	34
157	1204	-1457	-107	41
158	1320	125	-23	45
159	673	131	-4	19
157	-447	431	154	-18
158	-1207	1430	78	18
157	-1722	1914	-4	-12
158	-1995	70	160	-27
158	-1797	-1111	94	52
157	-451	-49	-104	52
158	755	-439	-32	-56
159	629	-1896	196	-115
158	407	-2074	77	-23
158	-469	-546	-175	27
157	-421	62	-227	88
157	446	511	-209	106
158	385	1771	-111	54
158	97	1658	122	-84
158	303	812	201	-103
157	1193	-72	6	54
159	685	-625	-31	31
157	497	51	-69	-1
158	1821	918	-41	-42
158	2155	-143	187	-124
158	812	-520	195	-50
158	-427	-1144	-51	77
158	-992	-1083	-123	65
157	-1961	-63	34	-3
158	-1933	119	84	-56
158	-855	-47	162	-83
157	-80	118	110	-26
158	-1377	1198	-34	24
158	-2655	1188	-12	23
157	-1411	1042	9	13
158	-332	452	-110	33
158	313	-318	-222	45
157	1059	-1102	-89	45
158	1547	-1721	-176	64
158	793	195	-188	21
158	203	1642	133	-87
157	1319	-239	320	-101
157	1958	-1512	215	14
158	1821	-803	-51	56
157	742	1243	4	-25
157	-61	2897	-16	-12
158	-102	2375	-82	27
158	-410	-3	118	-15
158	-937	-2190	117	16
157	-1769	-3200	-42	15
157	-2412	-3015	-87	14
157	-2672	-405	-98	77
157	-1713	-285	-124	47
157	786	-114	-114	-8
159	2477	1271	-78	-45
158	2477	1356	113	-82
158	2715	1872	186	-40
157	2110	1121	-86	47
158	-240	82	-165	59
157	-1017	385	34	33
158	-346	1886	180	28
157	-1116	1838	69	33
158	-1754	-645	35	32
157	-1280	-3206	110	4
158	-1207	-2098	-56	-54
158	-1143	-570	-33	-103
159	-645	-1102	122	-51
157	779	91	68	25
157	2366	-364	-34	24
158	2713	-61	-2	-14
157	2371	239	2	9
157	1083	300	-173	127
158	572	1218	-255	132
157	-103	1395	-1	-57
158	-1232	1770	397	-141
157	-1104	1553	264	-81
157	-763	1153	53	-17
157	-441	115	161	6
157	-1252	-274	-25	39
157	-2628	-1715	-121	64
157	-3731	-1369	42	2
158	-2672	-895	13	-22
158	438	-1102	-11	-30
157	3014	-111	71	-83
157	4000	-267	131	-103
157	3846	189	102	-5
157	1675	-569	-44	35
157	89	3	-140	17
158	-508	215	-2	9
157	-758	-501	81	19
158	-823	-233	-51	100
158	-550	496	-92	108
158	296	2454	-148	89
158	-88	2126	-173	41
158	-994	273	-67	6
158	-1465	-281	77	-32
157	-1567	265	174	-128
158	-2105	-615	201	-116
157	-1860	-1459	214	-86
157	127	-640	65	11
157	538	-334	-169	131
157	646	-999	-265	111
157	863	-1396	-59	25
158	1514	-717	127	-18
158	1885	906	91	24
157	1711	1884	73	-3
157	1546	1754	56	-25
157	150	875	-57	-10
158	-890	-1228	-112	18
158	-1201	-1230	-125	39
158	-521	-99	1	-31
158	236	18	145	-29
158	535	779	69	-39
158	-247	1042	24	-13
157	-341	-635	-79	35
157	-51	-1170	-120	-8
157	-1801	-601	3	-48
158	-911	-502	92	-70
158	911	122	58	-2
158	550	1034	16	16
158	-64	1578	-10	39
157	215	1320	-148	72
158	568	306	-100	-9
158	-120	-616	80	-55
158	890	-654	142	-23
158	1225	-18	139	11
158	388	708	1	13
157	605	140	42	-88
158	472	-757	155	-110
157	611	-1488	1	11
157	142	-1687	-43	95
157	-1009	-332	-152	116
158	-2385	-575	-247	80
157	-3033	-222	-45	45
157	-1862	768	15	24
158	-662	1048	-54	58
158	-42	1952	-124	121
158	1000	1755	-97	127
158	1692	1150	53	36
158	1580	-324	118	-78
158	689	-1942	47	-87
158	319	-1345	65	-104
157	723	-538	232	-128
157	30	-338	241	-71
158	345	1007	117	-41
157	694	772	0	-7
158	600	373	-56	2
158	-138	254	21	9
157	-2395	-119	63	-5
158	-3065	188	28	7
157	-2291	-947	-59	42
157	-1020	-463	-108	4
158	726	1265	-44	23
157	2949	1787	31	37
158	4000	93	-3	66
158	2639	-1476	-152	34
157	-623	-2147	-109	-48
158	-938	-867	17	-51
158	-196	1239	-55	16
158	-374	351	-48	3
158	103	-231	152	-103
157	392	-417	165	-67
158	675	-557	140	-22
158	-194	-1142	97	-11
158	-1456	203	-25	5
157	-1048	1250	68	6
157	-790	1607	1	28
157	-1260	1394	-72	25
157	-2415	-417	-42	37
157	-3256	-21	-58	39
158	-2903	-926	-62	60
158	-682	-1073	-20	55
158	2299	178	58	-22
157	4000	-81	18	-67
157	4000	-101	-113	-22
158	3591	305	-163	25
157	1071	862	-6	-6
158	-983	426	-17	51
157	-908	-371	-106	137
158	91	178	-175	111
158	-731	631	-141	6
158	-1667	213	143	-77
158	-1507	126	335	-150
157	-413	-1232	455	-115
157	312	-1555	85	2
158	998	19	-146	-33
158	1241	-733	-4	-29
158	289	-210	-8	-10
158	-1555	959	19	16
157	-2634	823	-7	27
158	-1750	407	65	8
158	-817	-370	-22	57
157	-57	288	-58	15
157	685	1140	3	-42
158	1695	824	42	-14
158	1917	472	68	17
159	1224	582	32	19
158	942	815	61	24
158	319	240	15	15
157	-62	-965	-116	59
157	-698	-1050	-149	41
157	-515	-1332	-19	-31
157	142	-1840	79	-74
158	-531	-867	-63	22
157	-1066	-10	-257	117
158	-1311	586	-159	26
158	-731	1903	29	-22
157	46	1208	130	-55
158	652	308	164	-80
158	1020	-480	294	-82
157	1664	-1303	182	9
158	2242	-497	-89	84
157	489	168	-144	96
157	-547	62	-155	65
158	-142	308	-18	2
157	-25	1437	51	-16
159	88	1096	2	-46
157	199	952	-48	-56
158	531	380	104	-91
158	53	-1653	279	-71
157	-1268	-1818	174	-25
157	-1539	-1150	-56	49
157	-1528	-546	-162	33
157	-1324	-450	-34	-32
158	-1068	15	5	-8
158	-1041	769	31	13
158	787	894	8	21
157	2028	1553	36	20
157	1774	1078	103	47
157	493	-182	-117	61
158	-1163	-745	-162	82
157	-909	769	-138	80
157	300	2350	-123	18
158	1273	944	113	-101
158	2028	-2102	220	-125
158	2175	-3457	245	-67
157	1406	-1336	55	14
158	-74	623	-156	113
158	-1851	0	-146	110
157	-2685	-681	-106	-10
158	-2241	-239	5	-87
159	-1439	287	90	-10
157	-553	292	104	-10
158	806	-150	-108	16
158	1170	226	-96	37
157	736	867	45	4
157	151	2141	-12	36
158	-817	2957	39	7
158	-48	596	33	-45
158	927	-2719	163	-92
158	1248	-2347	82	-44
158	1046	507	-125	30
157	60	-581	11	43
157	-400	-1653	-86	90
157	-5	-730	-61	-1
158	754	13	304	-141
157	483	1054	207	-11
158	-719	1287	-90	77
157	-2105	1465	-69	-1
158	-2162	628	-27	38
157	-2240	286	-128	103
158	-2192	1226	-171	51
157	219	1562	-53	-26
157	1484	353	167	-87
157	1333	-1782	288	-110
157	835	-2654	-12	27
159	880	-1020	-325	103
158	1629	-121	-199	-6
158	1678	-208	157	-124
158	2236	444	330	-98
157	2112	30	196	-41
158	720	-295	97	-2
157	-402	726	-31	59
158	-913	1886	-67	23
157	-1769	1459	23	-3
158	-2481	-42	35	42
157	-1956	-1310	-116	86
157	-886	-1432	-200	-21
158	4	-1511	33	-62
157	938	-1579	1	48
158	549	-200	-85	93
157	-115	-17	-128	104
158	10	855	-74	9
158	-113	2065	174	-63
158	-431	1624	104	-25
157	-840	347	127	-22
158	148	-487	29	30
158	968	-616	-30	16
157	1315	-216	135	-34
158	1917	-99	2	-6
158	503	-1071	2	-13
157	-2174	-392	38	4
157	-2885	767	-79	0
157	-1657	1489	-89	-4
158	-880	1689	-124	30
158	369	932	-121	45
157	2064	-915	-67	66
158	3124	640	50	-23
157	2185	2043	271	-113
157	848	-1992	208	-113
157	689	-3062	141	-83
158	300	-2340	51	9
158	-649	151	-203	79
157	-1270	1317	-250	79
158	-794	-33	-104	8
158	-1412	-457	160	-98
157	-1412	-1134	174	-99
157	-69	870	110	-68
158	143	262	53	-31
158	332	31	-94	33
157	1083	205	-51	54
158	1046	-130	-25	56
157	325	725	-27	50
157	-651	210	-83	78
158	-1295	-149	-88	105
157	-2059	67	-112	91
158	-1377	683	-236	90
157	754	69	-123	31
158	873	1226	161	-91
157	1472	1692	312	-89
157	2064	299	123	-40
157	1808	-312	26	-52
157	880	-1504	143	-46
158	-1195	-895	183	-4
157	-2757	-451	78	46
157	-3329	-1495	-101	101
157	-1733	343	-157	120
158	-474	2095	-152	46
158	274	1886	-60	-30
157	1543	1203	109	-49
157	1857	-30	166	-101
157	1475	-969	87	-121
158	736	-2046	21	-55
158	594	-1409	45	-44
157	-132	-44	64	-15
157	-707	40	-38	15
158	-202	-784	-56	-11
157	277	-1946	44	-50
158	1083	-663	-56	-4
157	1547	475	-122	88
158	1195	504	-63	83
157	131	1247	-74	111
157	-918	1243	-208	136
157	-1519	1206	-61	62
157	-1933	1197	218	-31
158	-2192	1157	69	-14
157	-2432	1079	60	-15
158	-2105	-278	117	-52
157	-257	-1034	-11	-46
158	2043	-354	42	-101
158	2780	-1397	168	-110
157	2185	-2417	160	-68
158	1451	-688	-63	8
158	1031	1437	-206	33
157	-144	669	-108	27
157	-377	122	-59	84
159	-103	911	55	41
158	-1367	600	43	49
158	-1051	590	-88	100
158	-779	-286	-68	84
158	-423	-1034	49	-45
158	728	-1042	222	-173
158	1435	-686	157	-140
157	1747	-810	12	-33
157	243	-436	-63	11
158	-237	452	-47	19
157	-286	40	-1	62
157	-223	465	17	41
157	385	1135	-2	22
158	505	1615	21	39
157	673	699	30	83
158	-728	-818	-131	119
158	-1667	-191	-107	77
157	-1788	1899	-25	-12
157	-1780	1931	-61	-4
157	-49	81	95	-9
158	728	-1794	169	-6
158	470	-2995	-56	39
159	679	-1476	-16	-35
158	819	-625	160	-118
157	1342	128	167	-150
158	1362	118	111	-55
157	930	-250	-129	52
158	405	1143	-253	74
157	-571	1293	-152	58
158	-1071	1031	0	-8
157	-1326	410	119	-36
158	-1477	399	174	-40
158	-1503	517	15	12
157	-1173	-275	-114	66
158	145	417	62	3
157	218	-181	241	-73
157	247	-1801	156	-74
158	528	-1459	-127	-17
157	-18	-813	-125	34
158	300	-602	-159	71
158	32	-312	-240	89
158	231	1254	-36	0
159	1549	1580	236	-88
158	1970	570	206	-71
158	1224	371	85	-66
158	-431	306	186	-58
158	-651	1642	66	-37
158	23	1285	54	-38
158	-362	-1707	20	-16
158	-776	-2352	-90	21
157	-783	-840	-111	80
158	-543	534	-197	58
157	-626	34	-49	-11
157	-219	556	3	28
158	447	1692	-26	74
157	438	642	-54	97
157	-534	-328	-75	51
157	-840	-603	-31	-6
158	347	-321	-83	18
157	432	-1450	-55	17
157	920	-749	40	32
158	1851	491	13	-14
158	1851	-648	50	-69
158	1395	-180	193	-74
158	291	92	182	-50
158	-638	-546	206	-10
158	-1956	-609	96	-18
157	-2945	152	-44	43
158	-2903	13	-123	77
158	-2287	42	-194	84
157	63	981	-30	90
158	2112	1458	49	36
157	3062	1761	-75	48
158	2412	1692	-80	41
158	61	1951	41	-46
157	-725	1518	101	-111
158	-129	244	97	-69
158	284	-2641	110	-70
158	-262	-3886	152	-75
157	-611	-1450	-52	-15
158	-314	-597	-87	-65
158	177	-244	135	-92
158	718	-185	71	-9
157	853	-333	-33	18
157	99	642	-24	47
158	-2076	149	-185	142
157	-4000	655	-217	140
157	-2786	444	-42	68
157	213	772	91	-61
157	1678	793	125	-78
158	2064	-368	62	-50
157	1439	543	-53	-1
158	1257	385	-279	127
157	652	1382	-176	38
158	-61	1761	160	-120
158	1034	351	295	-123
158	1423	-1715	191	-1
158	1389	-2619	146	10
158	694	-1580	111	3
157	-521	-803	-38	-5
157	-962	-146	84	-41
158	-1312	248	-24	35
157	-1443	1205	-110	61
158	-1667	1153	-41	41
157	-2240	608	-43	-7
157	-1917	-317	149	-70
158	-192	-904	130	-70
158	1565	-236	26	-1
158	2302	461	-101	41
157	2501	139	-179	72
158	2110	-249	-347	182
159	1066	-239	-366	125
157	-86	-161	-4	-42
158	-707	-597	125	-5
157	-889	-401	94	39
157	-1350	117	107	-13
158	-1700	122	70	9
157	-1106	1190	26	-31
158	-545	1485	210	-104
158	-342	1431	181	-84
157	159	768	-139	41
158	973	295	-47	33
157	1322	309	148	-54
158	-109	338	135	-74
158	-1201	-2097	122	-42
158	-729	-2978	-44	66
157	213	570	-209	87
157	373	460	-128	49
157	-208	-426	59	-34
157	490	382	109	-23
158	933	109	47	14
158	519	-155	7	-14
158	613	-429	-69	-29
158	115	-526	0	-38
158	274	-711	-35	1
158	669	-486	-32	-23
158	-320	368	73	30
157	-1282	952	-36	70
157	-1638	1972	11	14
157	-397	2186	-1	19
157	457	1209	-25	-10
157	914	-541	-20	-28
158	1805	-1578	-59	-62
159	1241	-2060	95	-70
157	152	-1257	228	-36
157	-875	63	186	-20
157	-618	-926	-80	39
158	-289	-304	-275	103
159	252	3	-214	41
157	1678	848	-7	-84
157	1286	1615	282	-67
158	-586	611	246	33
158	-2440	-110	-86	64
157	-2303	-469	-144	41
157	-1702	143	1	-1
157	-1327	17	143	-15
158	646	-401	104	-3
158	2440	464	22	-51
158	2306	2644	98	-64
158	1580	2289	-7	-5
158	1632	-517	-70	61
157	1107	-3158	-17	55
157	75	-1060	2	-5
157	-1116	1209	-15	9
157	-1789	-1193	-51	54
158	-1930	-757	-30	46
157	-1985	-199	-90	23
158	-974	158	-247	61
158	77	186	-288	92
157	482	100	-97	17
157	413	801	236	-108
157	482	866	362	-129
158	159	750	162	-17
157	-1312	472	15	105
157	-2526	605	-84	93
158	-1981	-176	-92	20
158	45	-300	18	0
157	1549	-1592	53	-74
158	2327	-1459	64	-102
157	2329	-1363	66	-86
158	2358	-2002	21	-30
158	1873	206	-83	55
158	522	266	-99	21
157	-13	339	-40	73
158	-851	614	-13	94
158	-1207	445	-101	53
157	-682	1112	70	-72
158	-31	819	172	-114
157	654	977	-63	40
158	544	1583	87	10
158	-707	1489	224	-22
158	-1538	1465	51	50
158	-1136	21	-51	34
158	-852	-1766	-75	-35
157	-459	-1612	-70	-94
157	-772	-2480	42	-64
158	-1440	-1232	71	15
158	-962	262	-124	6
157	-358	172	-34	-42
157	35	303	118	-41
158	1547	98	89	57
158	3105	1088	47	52
157	2863	1754	12	2
157	1448	1071	7	41
157	733	-455	-177	85
157	257	-1454	-188	34
156	-561	-907	36	-70
158	-1143	556	86	-38
158	-1105	309	-19	45
158	-1088	12	155	-42
158	-1098	134	151	-81
157	24	-941	-35	-15
158	1678	-82	2	-43
157	1723	1019	10	-7
157	-8	789	170	-7
157	-832	597	56	19
158	-682	-392	6	48
157	-298	-663	-30	70
158	-138	-39	-373	209
158	-67	-1180	-389	144
158	192	-128	-97	4
157	-772	1071	328	-89
157	-1502	-407	357	-90
158	-324	-460	213	-80
157	285	-692	104	-65
157	-790	-245	-32	7
158	-1594	993	-128	18
158	-677	54	-197	32
157	364	-984	-31	8
158	236	-209	2	-34
158	1581	1098	19	-57
158	3491	1271	69	-50
157	3020	894	4	29
157	531	518	-100	137
158	-1069	482	-43	59
157	-744	568	60	-57
157	-808	-603	85	-48
157	-304	-1397	119	-45
159	263	-1847	0	10
157	-605	-1143	-124	57
157	-2026	-298	-128	38
158	-2243	382	-170	31
158	-1555	1129	-34	-9
158	-1453	913	166	-45
158	112	607	174	-59
157	1528	68	197	-176
158	2913	271	87	-171
158	3863	-210	32	-37
157	2825	-1075	45	56
158	2043	-767	-85	101
158	112	-60	-22	60
157	-1201	656	61	51
158	-1638	866	80	56
158	-2455	327	321	96
158	-3019	-55	421	116
157	-3142	756	23	121
157	-1667	1553	-268	74
158	-96	805	-338	-68
157	1439	-455	-552	-106
157	2639	-842	-366	-83
158	2329	131	65	-68
158	1381	-50	79	2
157	175	-1316	-26	112
158	-800	-1606	-25	17
157	-709	-1208	138	-63
158	-641	-22	53	82
158	-808	499	-170	41
159	368	302	2	-57
158	1420	306	95	15
158	1167	153	101	70
157	669	365	12	116
157	452	894	37	96
159	389	1607	179	13
157	-431	1841	68	-36
158	-1406	353	67	-44
158	-1105	-1129	195	-125
157	-504	-1929	250	-162
157	-408	-1509	56	-77
158	-168	-1675	-16	-80
158	-415	-791	-8	-51
158	-366	446	-127	3
157	-712	-233	-201	44
158	-1830	452	-340	81
158	-1412	256	-250	39
157	-635	375	-138	103
158	346	1084	-65	151
158	1450	2095	95	-23
157	2195	2444	132	-60
157	1747	1009	181	-46
158	89	-220	267	-101
157	219	-2930	181	-115
157	1310	-2466	105	-115
158	1982	967	104	-24
158	1433	1031	138	-30
158	-111	420	235	-54
157	-960	-1002	42	34
158	-1539	-2052	-258	150
158	-1494	-366	-282	122
157	-759	446	-90	38
158	-182	1048	-33	37
158	-60	1078	-25	8
157	-224	-191	115	-33
158	-529	-907	127	-43
158	-304	-175	121	-42
157	-310	610	44	2
157	-189	309	-72	36
158	272	-326	-117	33
157	-51	-574	-78	19
158	470	173	-51	-53
158	1695	553	-11	-47
158	2275	772	77	-17
158	1436	-180	-13	15
157	-474	-1390	-28	55
157	-2046	-572	-62	49
157	-1845	689	-169	92
157	-744	959	-138	111
157	-442	1347	-151	108
158	-75	762	-47	8
157	77	-692	193	-146
158	-118	-360	256	-140
157	-767	-358	208	-72
158	-989	-622	71	-10
157	13	-215	-116	61
157	414	635	-219	140
157	1010	1010	-273	136
157	1366	1060	-14	-21
158	660	586	419	-182
158	1126	-555	338	-118
157	1593	-1324	65	-10
157	1546	-1504	10	27
158	973	-98	-130	79
157	-382	62	-112	47
158	-920	267	-90	28
158	-747	1870	-99	57
158	-1167	2547	31	42
158	-1972	860	-9	-3
157	-1491	-1932	-16	-26
158	-510	-1721	99	-59
157	-868	-1442	174	-118
157	-1023	-2076	77	-93
157	866	-875	41	-61
158	2440	-210	93	-77
157	1634	-146	-9	18
158	-452	102	-151	87
157	-1477	759	-121	11
158	-1020	1522	97	-8
158	-810	1271	143	-58
158	-258	789	74	-63
158	1241	93	-31	21
158	1944	-310	-123	80
157	874	-264	1	120
157	-657	329	262	65
157	-754	666	97	66
157	357	-142	-106	-26
158	1069	-704	-43	-148
157	1334	-372	-165	-74
158	835	15	-91	87
157	438	62	13	178
158	338	3	-68	126
157	-199	258	-100	0
158	-445	34	70	-103
157	-262	525	88	-10
158	-82	665	-37	37
157	-146	265	46	-6
158	-252	-803	-95	63
157	-453	-1083	-95	-34
157	-632	620	250	-98
157	-1268	699	167	-3
158	-2826	916	-162	62
158	-3483	637	-240	113
157	-1862	-438	-242	86
157	-872	-1395	-29	27
158	89	-1231	193	17
157	2242	1822	163	-4
158	4000	1488	61	-90
158	4000	-1149	123	-141
158	1549	-1217	252	-120
157	-83	-768	113	-57
158	-501	351	62	-32
157	-802	146	28	-17
157	-892	-137	-39	-4
158	-823	-382	-99	61
158	-276	507	-266	95
157	239	2316	-123	2
159	623	1719	89	-112
157	1040	423	225	-144
157	1074	-2252	248	-33
158	51	-2352	30	55
157	-855	-352	-51	58
158	-1554	-1353	-194	89
158	-1503	-1215	-192	82
157	-1406	108	107	3
157	-2556	1098	82	41
158	-1906	1666	-97	117
157	28	1399	-95	60
157	1212	628	-24	-1
158	2547	-497	34	2
158	3449	-208	71	-27
157	2818	-194	140	-44
157	1508	175	196	-55
157	227	545	37	-73
157	-63	-354	-110	-39
158	-510	-722	-42	-66
158	-1797	-626	56	-51
157	-2144	-128	-38	67
158	-2149	-445	-323	144
158	-1023	-1462	-304	128
157	215	-184	59	-12
157	54	492	239	-43
158	-521	211	103	-13
157	-155	670	92	-58
158	1593	791	20	49
158	2443	1400	-35	33
158	1917	1333	33	-100
157	917	196	5	-122
158	426	-1129	65	-114
157	-360	-619	87	-52
158	-1118	1277	64	0
158	-330	2198	-120	53
157	685	710	-67	-14
157	568	-1268	282	-111
158	-488	-1578	305	-32
158	-508	-1215	-77	120
158	-552	167	-152	109
158	-1502	1119	0	32
158	-1791	331	-85	44
157	-1700	-533	-77	91
158	-548	-926	-235	177
158	373	88	-308	156
157	-65	-387	-16	-19
157	-724	-1652	265	-161
158	-336	-405	261	-122
157	1885	-520	174	-55
158	2509	-512	183	-114
157	1910	285	84	-77
158	793	614	-41	9
158	-1374	671	-111	83
157	-1331	880	-137	94
158	-267	1706	-83	28
158	663	1400	-31	-16
157	1618	601	19	-26
158	1565	-407	-10	7
157	1105	21	-149	92
157	-380	1522	-265	173
157	-1944	917	-131	37
157	-1722	-907	270	-158
158	-237	-1352	443	-169
158	453	-1476	214	4
158	-207	-1847	69	14
158	-557	-1129	-29	-11
158	-1254	-1034	-135	86
157	-1569	-102	-77	31
157	-729	708	-112	33
158	1160	1042	-123	59
157	2315	1631	-180	137
157	1562	877	-175	140
158	203	606	-8	-4
158	-994	140	21	-129
157	-754	582	122	-152
158	-281	7	321	-105
158	295	-1462	240	-72
158	821	-107	-55	-8
157	797	250	-48	-70
157	718	-722	142	-77
158	159	-767	0	86
157	-169	-1024	-158	107
158	-561	-256	-191	110
158	-1959	405	-132	45
157	-2929	708	132	-66
158	-1318	1392	186	-46
157	522	1129	190	-32
158	1435	-167	145	-49
158	2215	-670	60	-34
157	1970	-1228	-55	63
158	1212	-117	-206	73
157	73	2103	-99	-48
157	-561	430	63	-130
159	-827	-1495	236	-61
157	-836	-1692	139	21
158	-1326	80	-54	37
157	-1736	224	-127	94
158	-1593	-7	-202	125
158	-966	683	-126	32
157	248	-287	81	-71
157	1046	-123	159	-37
157	2639	294	70	-53
157	3340	23	2	-58
158	2011	112	-42	-7
158	-277	692	-8	-2
157	-1086	-190	-21	-7
157	-161	-409	-28	23
158	227	-542	-65	138
158	417	500	-36	108
158	-5	1790	-19	25
158	-441	855	-105	7
158	-941	694	100	0
157	-1064	-542	174	1
158	-1101	-1332	60	-42
158	-1539	-92	147	-72
157	-2491	281	102	-6
158	-2478	125	-99	79
158	-79	-860	-98	57
158	1293	-1180	-172	58
157	2863	507	-99	-54
158	3491	662	147	-111
157	2695	1250	97	-7
158	1968	772	2	23
157	178	-704	40	-12
158	-583	-533	-42	46
158	-990	-511	-244	162
157	-1178	-315	-351	121
159	-817	-313	-128	-82
158	-782	545	524	-241
159	-362	382	477	-129
158	144	-1142	82	-37
158	-427	-1158	13	13
158	-1160	-26	-197	63
158	-1632	146	-94	69
158	-2306	614	-133	92
158	-2429	1495	-209	32
157	-920	1489	9	-83
158	1805	1626	183	-95
158	2975	383	196	-5
158	3149	-1336	-3	32
158	3016	-1193	179	14
158	2064	-441	530	-25
158	348	356	238	72
157	-685	346	-195	90
158	-810	-1118	-300	-102
157	-1292	-764	-437	-131
158	-1002	-93	-200	21
157	-618	168	112	106
157	-102	186	-63	89
158	227	-27	-131	34
158	-18	-209	29	-72
157	-672	-1638	104	-44
158	-1232	99	28	-25
157	-744	1658	49	-97
157	-557	1384	40	-46
158	-261	926	-13	-40
158	568	-451	44	-9
158	1147	-855	-12	27
158	534	-1138	8	40
157	-1252	298	-30	78
158	-909	772	-128	58
158	560	-176	-82	40
158	655	-200	30	-17
158	1283	-146	149	-82
157	1830	306	111	-60
158	2090	399	-5	17
158	877	275	36	43
158	-1308	462	92	73
157	-1412	994	-43	136
159	-827	161	-199	125
158	-725	-124	-10	-41
157	-867	655	271	-110
158	-1113	-495	122	-41
158	-663	-1336	-152	7
157	596	-1653	-200	60
157	1093	-1460	-173	51
158	1376	-602	-86	21
158	1123	-586	17	55
157	-96	597	-12	-2
158	-545	485	372	-166
158	-550	413	540	-41
158	-566	1483	143	63
158	-453	1407	-2	0
158	-557	894	-6	-11
157	-950	-723	29	-14
157	-234	-366	-110	27
157	1342	1993	-175	18
158	1780	1841	2	-33
158	1268	-241	119	-64
157	207	-2015	9	15
158	-679	-2849	-182	79
158	-1308	-923	-256	91
158	-1862	-332	-160	-16
158	-1181	-648	77	-78
158	-149	-36	177	-100
158	723	2	253	-179
157	1566	613	70	-62
157	1522	815	-29	37
158	662	742	42	78
158	-266	285	14	39
158	-561	1031	31	19
157	-1129	2560	-30	13
157	-1477	2188	-9	-41
158	-540	-38	80	-25
157	819	-2101	-21	23
158	673	-1967	-169	42
158	-1098	-778	-148	33
158	-1023	-46	-113	72
157	188	894	-31	94
157	528	287	-30	52
158	1580	-301	-28	-25
158	2509	-158	83	-43
158	1628	-105	-16	58
158	-465	-6	-42	80
158	-1297	336	276	-89
157	-893	683	312	-172
157	-632	-1056	31	-118
158	151	-1180	84	-92
158	952	222	132	-6
159	994	169	-79	44
157	373	-300	-81	15
158	-233	464	-87	18
158	-431	513	-217	54
157	-300	-310	-203	64
158	42	-796	36	-30
158	-251	-1423	65	-19
157	-343	-538	-137	68
157	-531	-196	15	26
158	-1531	-99	157	6
158	-2000	772	15	99
158	-2030	1733	-61	98
158	-1023	2124	-11	29
158	-488	902	123	-20
157	-249	-726	228	-48
157	1695	-1005	-45	19
158	3210	553	-207	47
157	2877	-262	85	-13
158	1225	-1265	192	-72
157	231	-184	-1	-19
157	448	614	-176	7
157	-589	591	-29	0
157	-1398	70	296	39
157	-1041	939	330	105
158	-1055	485	-130	143
158	-1185	-1180	-304	-29
158	-663	-1748	-237	-177
157	1861	-92	-258	-81
157	2991	1315	23	95
157	2529	1774	19	54
158	972	1130	59	-86
158	-1508	-1152	206	-73
158	-889	-1363	12	-29
158	148	-249	-55	-61
158	426	-1140	34	-57
158	758	-1263	174	-3
158	50	-432	164	33
158	-744	315	36	50
158	-1594	1631	-111	37
157	-1502	1562	-160	49
158	-927	2644	-27	9
157	-840	1647	24	-13
158	-494	-922	72	-41
157	-488	-2163	206	-81
158	140	-2250	21	-13
157	969	-1221	-72	-32
158	1612	-904	29	-24
157	1675	-661	-80	56
158	137	38	72	7
158	-1654	155	33	24
157	-3353	25	-121	101
157	-3512	852	-91	119
158	-1781	918	-81	73
157	493	1412	13	-94
157	3203	1776	112	-144
158	3251	1502	152	-69
158	1873	601	93	-60
158	1212	-128	130	-60
157	-42	142	9	-30
158	-120	-2046	-40	-14
157	458	-2001	-21	15
158	819	-75	-67	53
157	392	-396	-33	74
158	-568	-344	-91	109
158	-624	357	-82	95
157	-244	1282	-22	-17
158	-315	699	82	-95
158	-941	-359	101	-55
158	-1093	-923	95	-5
157	-865	-496	-39	6
157	8	-597	-253	88
157	592	-867	-284	174
158	54	-312	-39	69
158	-812	-70	404	-106
158	-453	357	300	-89
158	615	425	33	6
157	657	642	-3	-22
158	1212	408	-47	4
158	1488	356	54	10
157	600	440	46	12
158	-988	832	12	24
158	-2481	1348	-6	57
158	-3146	1287	-28	51
157	-2395	400	25	-25
157	-488	-412	-22	-39
157	1155	-994	-14	-108
158	3016	-515	63	-60
158	4000	381	22	47
157	3539	-1083	-155	83
157	1747	-374	-226	22
157	-313	1209	-248	-38
158	-1178	674	-10	-37
158	-1697	-603	156	8
157	-2215	-1138	-3	66
158	-2116	-503	170	-4
158	-1707	-474	220	-52
157	-1374	558	77	-36
158	288	734	25	-50
157	1859	-52	52	-30
158	2533	-904	160	-6
157	2064	-1845	107	-22
157	531	-927	63	53
157	-106	-334	-89	96
158	-1377	-482	-232	24
158	-1751	385	-256	42
159	-535	881	-130	91
158	254	1123	180	42
157	1293	1822	348	-103
159	1648	956	239	-138
158	1004	-190	-189	-31
158	349	-688	-488	25
158	-358	-207	-177	40
158	-265	505	184	38
158	-725	947	49	35
158	-1437	1083	3	0
158	-1826	-723	47	6
157	-3198	-1592	-28	7
158	-3033	-1304	-48	6
157	-1038	-451	-141	48
157	499	-594	5	4
157	1941	128	190	-54
157	3016	1399	149	-106
158	3344	738	-33	-32
157	2590	322	-65	-9
157	888	-441	151	-28
158	368	877	143	35
157	425	1533	-34	47
157	220	1001	-176	75
158	-27	373	4	-11
158	-617	-586	301	-90
158	-1131	315	122	-29
157	-1331	-1118	-118	42
158	-1113	-2949	-22	-5
158	-386	-1523	78	-50
158	67	-948	34	-14
158	-158	-122	-108	55
157	-789	499	-219	94
157	-1252	-77	-75	-27
157	-771	141	129	-77
157	-413	-167	24	23
158	-115	242	-30	4
158	-40	1726	89	-23
158	-624	2547	168	-15
157	-324	918	141	-14
158	-422	-962	51	2
157	-789	-1685	82	-20
158	564	-594	-11	3
158	1828	321	-137	63
158	2299	-195	-203	168
159	1792	542	-140	104
158	719	116	-81	-58
158	224	683	-54	-31
158	-129	1495	186	10
157	-281	721	97	-30
158	-1555	250	-3	22
158	-1259	-241	47	45
157	203	-48	-66	-9
157	680	357	21	-87
158	1765	-413	113	-110
157	1849	-2355	151	-14
158	1476	-2425	-12	23
158	252	-733	-152	40
158	-1033	567	-19	26
157	-1529	230	18	53
158	-2593	221	-92	96
158	-3483	265	-247	105
157	-3319	60	-111	16
157	-1207	800	58	-15
157	1549	821	51	-6
157	2848	676	180	-101
157	2509	470	145	-61
157	1707	1217	-127	9
158	1109	1031	-85	-5
158	992	-31	220	-181
158	1204	192	191	-115
158	1423	-87	121	-14
158	1257	203	131	-71
158	611	902	-131	36
158	-327	-198	-253	79
158	-1958	-1707	-124	64
157	-3668	-2159	64	29
158	-4000	-101	46	122
158	-2727	-27	-110	117
157	-1339	-1146	-20	-31
157	260	513	184	-46
157	1828	1001	287	-37
158	2315	485	179	6
158	2631	-1035	-84	57
158	2010	-750	-116	11
157	1286	-515	46	-92
158	270	-1215	-33	-98
157	-56	-171	65	-87
157	-79	-66	8	-2
157	-212	407	-281	91
157	178	894	-52	58
158	96	849	151	-26
158	49	800	2	18
157	-287	801	-106	81
158	-561	1590	-28	0
158	-1048	849	-6	26
157	-1153	103	41	7
158	-1412	-67	60	1
157	-2412	-263	35	13
158	-1555	-571	-46	21
157	322	-1606	-70	18
158	1334	-926	-36	21
158	1374	-239	-52	69
157	75	338	77	15
158	-2060	291	32	25
158	-2978	-589	42	-32
158	-1667	-1222	172	-81
157	899	-1027	119	-86
157	3539	683	75	-118
158	4000	746	55	-21
157	4000	339	-12	29
157	2241	365	-26	13
157	296	396	-159	99
158	-686	1024	-260	98
158	-1102	1304	-124	29
157	-1424	1335	-31	-18
158	-2089	1182	63	-60
157	-3383	1838	56	6
158	-3580	1034	-2	46
158	-2318	-1646	197	62
157	-446	-3062	463	-12
158	1864	-1511	270	-105
158	3602	296	-102	-75
157	4000	-1265	-437	-130
158	3198	-2269	-512	-53
157	1610	-879	-20	116
158	55	383	117	104
157	-961	-53	58	7
157	-893	52	265	-63
158	-494	191	125	24
158	-456	362	52	41
158	-1273	1914	-33	47
157	-1632	1886	-232	102
157	-1443	1356	-56	20
158	-927	837	6	-11
157	-170	-231	-21	-27
157	481	-1181	43	-53
158	1127	-1352	86	1
159	753	-152	-99	115
157	379	1647	-317	115
157	-235	801	-6	-82
157	-1657	-748	299	-179
158	-2232	43	220	-127
158	-1736	697	85	-44
157	-577	-442	218	-46
158	838	-2395	349	-109
158	2110	-1895	218	-119
157	2270	-603	60	-60
158	1719	-428	-185	17
158	1316	45	-134	27
157	690	668	-10	91
158	102	423	-114	121
157	-342	213	-38	66
158	-1282	361	-45	98
157	-2091	229	-152	134
158	-1959	693	-122	81
158	-1247	1271	-118	42
158	-731	1129	-46	-5
158	285	1672	50	-11
157	1917	2839	-133	62
158	2695	2356	-182	44
158	1747	308	10	-18
158	82	-2706	221	-95
157	-582	-4000	359	-110
157	-1246	-2798	134	-36
158	-1661	-1369	-135	58
158	-642	-1286	-271	113
157	354	-536	-184	-42
157	1028	241	169	-154
158	1644	419	271	-66
157	1310	466	105	24
158	-287	703	133	-2
157	-1648	812	68	39
158	-1488	1402	-31	59
158	-1017	2194	-24	90
158	-1209	2340	-116	104
157	-1125	1374	-39	-3
157	177	-546	-5	-60
158	897	-2849	60	-113
158	769	-2064	50	-96
158	1366	-81	-35	-53
158	2440	-335	-58	32
157	2949	268	-101	60
158	1450	762	0	27
157	-325	681	-53	66
158	-1827	-546	-169	103
158	-2879	-1119	-156	42
157	-1567	-703	-92	-44
158	295	-411	89	-4
157	1488	95	237	-36
158	1417	89	202	-75
158	212	689	31	-5
158	-431	999	-45	-6
157	-754	1436	-104	0
158	-707	1095	-188	-37
158	32	433	30	-96
157	812	-6	304	-140
159	471	601	103	-57
158	-1118	294	-15	47
157	-2621	-2050	123	23
157	-2412	-2355	98	51
158	-1038	-1245	71	84
158	386	-87	30	34
157	1970	95	51	-32
158	2989	133	26	4
158	2878	190	-82	36
157	1488	280	-18	22
158	282	409	50	28
157	-121	73	14	17
158	-731	315	-65	62
157	-892	637	-188	105
158	-921	986	-265	91
157	-924	991	-124	71
158	-1398	918	60	33
157	-1797	1173	94	-25
158	-1090	473	16	-51
157	-697	-142	-62	24
157	-875	148	38	-20
157	-1390	-935	185	-134
158	-452	-1296	280	-103
157	904	-1065	227	-39
159	1389	-1200	-8	2
158	2087	-1237	19	-82
157	2486	-1008	232	-136
158	2808	241	129	-22
157	1982	56	-93	51
158	973	183	-135	1
158	709	77	-131	35
158	248	3	-152	65
158	-950	566	-193	71
158	-2591	555	-208	107
157	-3323	606	-165	128
158	-3014	855	-144	130
157	-1862	2047	-187	80
157	-1477	2046	-60	-12
158	-1071	1384	190	-68
158	171	-178	186	-14
158	1387	-2589	106	-96
158	2765	-1643	223	-173
158	3529	-66	361	-183
157	3494	-1029	276	-112
158	2235	-1657	15	49
158	260	-509	-121	-18
157	-677	175	-110	-57
157	-758	84	9	-78
158	-649	-50	45	-39
158	-237	-538	-24	55
157	-49	-37	-3	66
158	-782	35	-74	171
158	-2302	17	-204	215
158	-3253	373	-169	138
157	-2621	491	4	-29
158	-1070	769	31	-58
158	505	1356	-82	40
158	1518	2316	-165	59
157	2443	2508	-96	12
158	2443	1287	186	-113
157	880	-431	271	-112
158	-1598	-1104	210	-30
158	-2247	-1782	115	-5
157	-736	-2590	31	3
158	-160	-2159	179	-38
158	1062	-603	55	-22
158	2148	-569	-189	19
157	2203	-616	-202	62
158	1204	74	-201	94
158	-42	363	-185	81
158	116	1404	-294	107
158	-97	1412	-257	51
158	-516	1282	83	-73
159	-1230	360	345	-138
158	-1704	-667	335	-77
158	-1528	-948	218	-25
158	-1256	-336	201	-51
157	-337	277	151	-12
158	533	620	82	-6
157	1290	1883	7	13
158	1099	1884	-21	50
158	-59	848	-63	45
157	-875	-529	-57	12
158	-1023	-58	-31	-43
157	-115	734	-57	-33
157	930	-1242	-6	21
158	1865	-2749	-27	5
158	1944	-2232	-37	-24
157	1389	-1295	-59	-38
158	629	-394	14	-50
158	-539	-148	98	-52
158	-1098	109	65	-35
159	-1569	726	-37	48
157	-2318	926	-145	97
158	-3174	683	-61	137
158	-3051	507	-170	131
158	-1769	1296	-272	144
157	794	1203	-83	87
158	2914	708	232	-127
158	3491	1001	207	-139
157	3506	1587	-25	-79
158	2291	934	356	-147
157	587	-1057	430	-69
157	-670	-2460	-20	34
158	-677	-2370	-87	26
157	-466	-2046	-39	16
158	-505	-1008	-32	-40
158	-360	519	59	-85
157	-400	-15	96	-44
158	-107	-563	-26	5
158	80	-623	-217	91
158	-548	245	-268	150
158	-1848	211	-97	83
158	-2302	642	6	42
157	-1115	1607	-12	12
157	528	876	27	19
157	1160	1031	-82	11
158	823	1094	-164	7
158	1257	1226	-38	4
157	1968	663	99	-77
158	1638	-248	279	-100
158	1472	-1266	251	-52
157	1105	-1441	104	12
157	568	-907	-19	30
158	-251	-626	-135	73
157	-796	-214	-32	-22
158	-466	-572	110	-107
158	-435	-287	124	-26
158	-772	102	18	-1
158	-1359	298	25	16
157	-1526	31	58	-1
158	-1587	-77	-45	47
157	-2086	296	-43	88
158	-2007	365	-122	98
158	-810	1173	-138	29
157	475	2672	-66	41
157	1212	2551	-201	123
158	683	894	-164	0
158	135	-503	188	-33
158	175	-1689	348	69
157	-162	-1677	154	-17
158	284	-591	83	-186
158	535	91	-106	-96
157	1143	-1473	-248	-122
158	2235	-2039	161	-119
157	2732	-413	253	71
158	1941	313	-36	98
158	169	42	-22	68
158	-398	73	99	-55
157	-1051	202	-55	-20
158	-1792	76	-135	-3
157	-1207	357	6	-44
158	-542	456	9	44
157	-590	915	-54	48
158	-571	1348	-97	62
157	212	1844	-80	67
158	679	2057	-9	33
157	402	1821	-13	-49
157	572	507	117	-101
157	582	-1941	286	-54
158	270	-3323	-43	96
158	-7	-2098	-290	136
158	-600	206	-183	29
158	-372	50	36	-159
158	128	-1056	249	-168
157	409	-1245	4	-2
158	166	-524	-120	7
158	-849	368	-109	39
158	-1195	244	-152	55
158	-1023	92	19	40
158	-474	-168	283	-40
157	299	31	428	-41
157	499	185	137	83
157	-332	85	-190	77
158	-1311	966	-64	-14
158	-901	794	69	25
158	157	496	-39	116
158	582	475	-3	18
157	628	79	92	-85
157	1125	1645	-30	-24
157	1046	3809	-42	38
157	-122	2805	35	11
157	-73	-794	117	-107
158	1082	-3828	275	-199
158	1593	-3662	155	-82
158	1873	-2232	-150	63
157	1286	-1675	-399	145
159	-132	-962	-377	138
158	-1797	-343	-138	-17
157	-2838	22	207	-128
157	-2241	248	314	-48
157	-1508	791	97	5
157	-412	835	29	-23
157	771	643	-64	21
157	1717	404	-149	85
158	2051	695	-75	95
157	775	1798	129	23
157	213	1518	221	-57
157	728	905	52	-60
158	736	467	166	-88
157	402	-661	139	-60
158	178	-413	-13	29
157	-538	-637	70	25
158	-2102	-1718	-52	30
158	-2525	-574	-152	59
158	-1762	-391	-169	63
158	-569	60	-132	74
158	1093	1604	-196	60
157	1362	2095	-185	8
157	648	2300	6	-26
158	-31	278	-40	25
157	-59	-1985	-47	23
157	-184	-2935	87	-26
157	-536	-1459	92	26
158	354	464	-34	84
157	544	959	-48	-5
157	196	1048	167	-101
157	38	-518	282	-109
157	-270	-1476	187	-96
157	-56	-1193	137	-42
157	-494	431	-42	65
157	-1531	1129	-65	114
158	-516	1019	-48	81
158	1593	1143	-90	-24
157	1913	238	251	-151
158	1762	-1316	231	-131
157	1632	-1423	-40	-41
158	823	-220	-127	49
158	-642	-295	-185	80
157	-1944	113	-101	14
158	-1308	329	-59	-11
158	-405	820	-46	-5
157	250	1502	23	46
157	1288	1607	-10	93
158	1435	1177	127	101
158	712	-609	510	13
158	-675	-3059	365	-91
158	-1633	-1754	-181	-90
158	-2504	197	-548	-77
158	-2621	-352	-654	-24
157	-1048	-34	-167	21
158	-180	-728	84	109
157	679	354	-81	119
157	1590	1347	109	43
158	1827	1430	239	-55
157	1678	1488	235	-54
158	1056	87	149	-64
158	912	-397	99	-125
158	750	-533	94	-36
157	261	-597	96	-10
157	118	-1027	59	7
157	-53	-616	-200	16
157	-201	-92	-75	-62
157	-388	76	51	-40
158	-893	394	-19	90
158	-1400	217	72	79
158	-1477	352	13	71
158	-731	692	-63	140
158	-202	1034	-86	139
157	155	837	-81	141
158	234	193	-75	19
157	-660	-460	-31	-30
157	-1339	894	127	-45
158	-1475	1533	141	-49
157	-1632	-281	-24	37
157	-2144	-1157	-7	-53
158	-950	-1847	-95	-22
157	623	-1193	-101	26
158	694	-20	267	-72
158	1546	-702	235	-118
158	3016	-234	86	-134
158	4000	134	-30	-44
158	3863	-346	-214	37
158	1780	606	-80	14
158	397	768	49	-34
157	-51	697	-37	-19
157	-310	297	8	-9
157	-721	-198	98	-16
158	-824	-450	117	60
158	-1786	-995	16	150
158	-2778	541	-133	82
159	-2410	2157	39	-44
158	-1536	2014	66	-23
157	-455	1323	-31	-36
157	1083	-816	93	-80
158	1806	-2798	97	-51
157	1386	-980	-110	61
158	-131	165	-246	51
157	-1017	-1208	-34	-158
158	-446	-723	189	-160
158	-5	-923	49	-2
159	437	-546	-70	21
158	852	178	15	51
157	1127	45	-10	78
157	927	323	20	15
157	392	35	121	73
158	-67	562	-59	157
158	167	618	-217	135
158	160	548	-50	98
157	-724	448	145	-9
158	-595	491	46	-88
158	61	619	4	-92
157	696	347	214	-21
158	904	81	127	46
158	213	42	-170	68
157	-772	342	-318	162
158	-1280	307	-135	104
157	-1070	1820	99	-49
158	-796	3414	95	-85
158	-107	2296	165	-125
158	516	-926	269	-173
158	438	-4000	78	-24
158	-62	-2943	-173	22
157	-601	-1118	-91	-32
157	-1440	-1944	58	2
158	-2086	-546	93	28
157	-1536	-342	13	60
157	-511	-587	27	10
158	457	-380	-29	41
158	1241	385	-396	116
157	2086	1071	-294	-24
157	1821	355	288	-138
157	1268	495	319	-40
157	1435	746	31	42
158	562	1129	91	-30
158	138	744	-7	2
157	117	643	-33	-23
158	-893	1495	87	-71
157	-1115	1844	105	-12
157	-656	1250	58	-24
157	123	234	-138	-41
158	1271	-2250	101	-102
158	1399	-3328	154	-51
157	920	-974	-105	27
158	236	-429	-130	52
158	-331	-538	-100	66
157	-459	-372	-30	-30
158	-824	-520	31	-29
157	-1527	-222	53	75
157	-2783	-400	-66	101
157	-2903	45	-88	40
157	-2000	534	32	-46
157	-1570	614	-67	-43
157	642	1085	-154	-36
158	2551	1048	197	-82
158	2195	582	301	-11
158	1143	406	16	79
157	373	835	-6	62
158	392	1335	3	77
158	505	1098	-29	56
158	1202	926	-130	37
158	1719	-352	-151	85
158	1212	-2204	116	194
157	353	-1383	185	199
157	-227	-220	20	-16
158	-174	-412	-59	-175
158	-654	-444	13	-288
158	-1118	-664	-147	-210
158	-265	-1129	21	-31
157	205	-1079	256	20
158	145	-338	-20	102
158	140	-227	-47	67
158	-16	-87	-211	105
159	-350	315	-152	35
158	-911	624	67	-65
157	-1606	993	118	28
157	-2102	772	68	60
157	-1201	801	-260	186
158	-396	1642	-338	175
157	346	2250	-102	-73
159	1435	1376	361	-201
157	1488	-187	324	-46
158	1851	-2089	103	45
158	1713	-874	30	-20
157	828	901	-67	-36
158	580	-763	167	-93
157	-36	-581	150	-82
158	-1377	-581	-10	-73
157	-2302	-234	-15	-53
158	-1707	-688	73	-50
157	-395	-1915	25	-38
158	942	-460	-56	-13
157	1830	-3	-62	2
158	1123	-103	-110	54
158	-237	-22	-46	64
157	-1331	237	-138	93
157	-2628	452	-268	121
158	-2557	893	72	32
157	-988	1607	314	-77
157	1027	2089	-17	1
158	2501	2319	-10	-23
157	3044	1556	64	-58
158	3409	290	93	-39
158	2467	-1476	202	-108
158	998	-3254	116	-68
159	-100	-2480	28	32
158	-800	-555	-107	52
158	-1384	-589	29	-28
157	-2280	-313	81	-1
158	-1931	59	-26	84
157	-1448	-404	-128	124
158	-1194	-168	-156	77
157	-610	380	-126	71
158	-272	555	-213	115
157	199	791	-157	42
157	363	928	-19	-73
157	790	339	29	-38
157	1093	-104	117	15
157	300	15	156	-60
158	-663	327	84	-50
158	-737	726	151	-25
158	-535	1820	70	53
157	-377	2078	72	93
157	544	815	250	-34
157	499	5	120	-86
158	53	-603	80	-111
158	244	-1268	46	-47
157	175	-2272	32	53
158	592	-1559	-40	35
157	1436	-107	-267	45
157	1747	-723	-136	-21
157	963	-1129	-57	-24
157	-129	-451	-172	91
158	-782	141	-165	94
158	-1280	-244	-72	66
157	-1134	-135	-65	-25
158	-860	-154	9	-141
159	-518	618	137	-105
157	-335	1271	81	18
158	-70	1577	138	0
157	-222	1737	120	-38
158	-1851	708	-85	21
158	-1633	-97	-8	-41
158	528	-517	140	-92
158	1761	-665	122	-96
158	2112	-1379	84	-16
157	1910	-681	72	38
158	1634	62	33	40
158	1362	481	-110	107
158	801	848	-219	105
157	-107	287	-152	45
158	-605	-92	75	13
157	-1148	296	93	45
157	-1661	541	-84	82
157	-1374	137	-96	59
157	-1638	341	-66	-34
157	-1143	403	127	-89
158	-227	464	335	-111
158	0	-1118	383	-56
157	505	-1316	546	-66
158	977	-325	267	-82
158	1632	-464	-148	-22
158	2011	-791	-448	-17
158	1719	-1008	-807	50
158	1129	-733	-390	84
158	117	-359	94	5
157	-950	413	67	35
158	-1769	320	6	150
157	-2174	654	-60	101
158	-2032	519	23	-5
158	-1245	827	88	-24
157	240	1931	66	34
157	710	1864	-26	38
159	736	708	-123	42
158	980	-1309	-114	79
158	748	-1187	74	-75
158	481	-17	225	-128
158	278	-12	127	-46
158	736	537	118	-46
157	920	1307	40	28
158	219	1131	-43	94
158	-1243	726	-98	87
158	-2559	-711	-121	-5
157	-1765	-2460	98	-117
158	-517	-2441	224	-116
158	-532	-1200	183	-120
157	-362	-668	39	-66
158	981	-649	40	27
158	2314	200	63	41
158	1723	470	-60	-15
157	742	718	-44	-38
158	311	578	31	-9
157	-462	355	46	-11
158	-817	431	-55	28
157	-1172	261	-97	85
158	-1282	702	-120	84
158	-736	966	-125	60
157	-133	1463	-69	107
158	1718	1810	-110	135
158	2509	1323	-83	93
158	1536	594	-136	97
158	1268	-821	93	-43
158	823	-1918	443	-145
158	255	-360	270	-82
158	-553	152	187	-103
158	-854	-1890	214	-75
157	-782	-1944	19	-6
158	-1064	-1294	-71	36
158	-1125	-1104	-139	85
158	-1507	-417	-224	48
158	-2111	-61	-193	-44
158	-2604	-33	-37	-54
158	-1722	62	130	-31
158	-779	669	79	-4
157	213	1197	-31	13
158	1522	2100	-30	-28
158	1450	2454	33	-78
157	2302	1931	92	-92
158	2822	624	-7	-9
157	2040	-1330	-161	30
157	1342	-2205	-97	-10
157	465	-2064	-70	-15
158	552	-1091	-155	61
158	753	-879	-90	71
158	358	-467	174	-31
157	3	230	341	-14
158	-583	513	42	166
158	-1006	1150	-172	143
158	-1538	900	-141	-19
158	-2999	273	28	-16
157	-4000	-79	231	30
157	-4000	378	10	124
158	-2152	1628	-102	60
157	789	1542	101	-141
157	4000	111	281	-216
158	4000	-533	382	-191
158	4000	-530	201	-98
158	3570	-1459	-63	31
158	1034	-1265	-262	129
157	-1327	-41	-172	79
158	-1262	262	82	17
157	-1639	967	20	2
157	-2432	807	-53	-16
158	-2704	-609	-33	-29
158	-2697	-1282	15	-13
158	-1995	254	-11	16
158	-2902	596	-136	2
157	-2964	-459	-126	13
158	-763	-110	-148	32
157	1612	837	-139	-7
158	2972	2567	-44	0
158	4000	2356	-37	15
158	4000	40	117	-61
157	3992	-2606	288	-108
158	1917	-2613	183	-159
157	-237	-980	125	-78
157	-918	-1129	49	95
159	-1438	-909	-177	143
157	-1440	-510	-186	87
157	-1458	-243	-84	-12
157	-1567	-39	0	26
157	-1023	255	117	84
158	-807	867	40	60
158	-515	1157	-90	87
158	42	1250	-53	111
157	497	683	-217	97
158	813	-53	-114	17
158	1176	-173	240	-57
157	620	18	186	3
158	-1292	419	208	31
158	-2498	422	411	58
157	-1425	614	317	48
158	213	176	-75	-51
157	1170	-204	-172	-135
157	2797	336	-279	-164
157	3239	-433	-293	-48
158	927	499	-47	112
157	-1982	2173	-243	140
157	-2498	1287	-243	43
157	-414	-469	119	-138
157	1399	-2476	348	-247
157	2907	-1782	204	-32
157	3102	-19	-78	87
158	2011	-1293	-131	47
157	867	-1225	-265	84
158	-282	-356	-80	-46
158	-595	-187	300	-64
158	-929	456	228	-21
157	-1181	-154	57	-45
158	-1270	-260	111	-20
158	-1058	-59	102	0
158	-1228	77	8	16
157	-1730	357	-65	35
157	-1448	934	-54	47
157	-2112	1663	16	0
157	-2543	1250	59	-10
158	-987	526	64	-48
158	708	-334	-25	-52
158	1747	-586	-3	-52
158	2054	-480	82	-80
157	2051	-413	121	-42
158	1665	116	33	4
157	416	-4	-144	67
158	-1023	-178	-113	75
157	-1567	502	-102	105
158	-552	1579	-109	104
158	102	2810	-41	21
157	403	3223	-28	2
158	932	934	52	-22
158	1040	-3036	59	-54
158	777	-4000	-104	70
158	-49	-2525	-259	112
157	-548	-1375	-82	20
157	-299	-417	243	6
157	-470	-278	273	-10
158	-356	17	198	-38
158	891	218	67	-32
157	1678	138	-58	-10
158	1040	211	-58	-28
158	363	351	27	-91
158	294	1277	134	-50
157	323	1474	88	2
157	219	465	66	4
159	186	-201	15	7
158	527	144	-147	56
158	226	610	-262	89
158	-382	-36	-127	-4
158	-854	-894	225	-48
157	-1331	-1056	245	7
157	-1781	-920	-40	114
158	-2867	-177	-120	104
158	-4000	-30	-117	99
157	-4000	111	-167	147
158	-2366	596	-102	68
157	438	2316	25	-25
158	3044	4000	206	-83
157	4000	2635	174	-119
158	4000	-22	136	-189
158	4000	-3159	147	-181
158	2226	-3518	64	-141
157	1067	-778	26	-109
157	961	-781	-34	1
158	556	-1231	-12	70
158	-232	-878	-253	104
157	-881	-714	-199	9
157	-1394	-253	335	-50
158	-1465	-260	538	28
158	-1377	360	251	10
158	-1023	373	-66	-17
159	-979	368	-232	-4
158	-1133	414	-531	-2
158	-1924	413	-353	77
158	-3608	748	-15	159
158	-4000	695	-173	171
158	-3466	708	-242	173
157	-1769	772	-257	82
157	1066	2032	-42	-120
159	4000	3096	436	-256
157	4000	1477	395	-103
158	4000	-965	53	73
157	2314	-2525	140	-57
158	-86	-1517	253	-75
157	-721	-287	25	-29
157	-224	-2071	21	-33
158	-116	-2159	43	-46
157	169	-922	-30	-59
157	-102	-574	-12	35
158	-492	-67	9	48
158	-817	404	-43	49
157	-666	610	-83	33
157	-521	409	-88	70
158	-624	460	-86	112
158	-545	570	-39	78
158	-342	1045	-49	26
158	-192	1553	-91	15
158	-228	1435	-24	-2
158	-635	596	140	-42
158	-1593	0	79	28
157	-2301	-1045	-83	44
157	-1220	-1330	-184	29
158	1080	1254	-177	19
158	2087	2249	229	-103
158	2481	1837	476	-168
157	2137	-119	210	-62
158	1808	-2476	68	-31
157	1958	-2021	83	-78
158	1549	-2477	-78	-65
157	1074	-1740	-152	-31
157	468	-859	-68	14
158	-221	-399	-71	65
157	-1017	394	-135	97
157	-1178	218	-9	39
158	-1071	980	61	67
157	-919	1536	-137	144
159	-455	2364	-152	129
158	-67	2385	-15	37
157	-115	956	117	-131
157	-517	-1281	289	-177
158	70	-1904	323	-120
158	979	-119	304	-126
158	1370	-875	72	8
158	1020	-2005	-248	135
158	-291	-778	-334	150
158	-1312	27	-236	112
158	-1267	706	87	-54
157	-881	1218	122	-78
158	-580	1135	-22	54
157	-488	716	-18	99
158	-256	233	-112	55
157	203	394	-11	-64
158	336	694	309	-150
158	1436	932	174	-81
158	1604	1048	66	-95
157	1189	-234	160	-68
158	1204	-2821	41	-15
157	524	-2742	28	-8
158	890	-442	-82	56
157	456	-554	-194	85
158	-453	-768	-208	113
157	-1116	260	-117	23
158	-1906	63	-19	-8
158	-1594	86	-68	49
158	-941	467	-29	83
158	-214	687	46	99
158	-26	837	30	66
158	-246	1024	-69	84
159	-3	1131	-169	122
158	141	764	-111	11
158	-346	41	-69	-102
158	-1207	-142	-32	-111
157	-1359	262	283	-124
158	-371	166	371	-99
157	231	-218	135	-89
159	556	-729	130	-96
157	1658	-261	121	0
159	2065	545	-74	97
157	1793	601	-257	102
157	1006	934	-209	58
158	166	1835	39	-26
158	-52	2320	4	-12
158	-1008	354	-70	0
158	-1496	-3241	192	-92
158	-670	-3886	197	-59
157	-100	-1830	-28	51
158	-176	-1702	-85	71
158	-494	-691	-195	57
157	-272	390	-275	34
157	669	197	105	-85
158	933	1173	431	-196
158	781	705	235	-84
158	634	190	154	-18
158	175	124	75	-5
157	-25	679	-43	26
159	-511	783	9	30
158	-684	192	-130	121
157	-460	377	-279	171
157	-292	280	-289	126
157	-397	394	-131	-48
158	-1826	49	55	-91
158	-2979	163	21	123
158	-2402	641	-50	171
159	-1207	373	40	-35
157	259	739	271	-163
158	2291	1495	273	-123
157	4000	620	130	-107
158	4000	-1079	42	-70
158	2946	-1958	-14	-37
158	1051	-2219	-50	-35
158	-241	-1169	-43	-51
158	-1023	-1082	88	-43
158	-1797	-688	-39	70
157	-1972	360	-41	110
158	-937	164	1	133
158	-286	959	-188	220
157	-436	848	-363	265
158	-1538	570	-298	77
158	-1412	383	363	-214
157	-253	309	487	-183
158	149	156	69	-61
157	221	-597	145	-67
157	499	-218	43	52
157	1263	-83	-112	77
158	1291	-152	-74	-9
157	945	-194	-96	-46
158	541	-272	-8	-98
158	877	421	-39	-12
158	1129	473	-131	156
158	400	456	-217	150
158	147	762	-128	-8
157	-266	748	177	-101
158	-641	1271	342	-109
158	-1023	1034	167	-67
157	-1554	-245	25	-54
157	-1648	-1042	52	-44
157	-1101	21	-120	36
157	-698	2174	-242	75
157	-686	1107	-192	-9
158	289	-2476	56	-124
158	1248	-2965	356	-110
159	971	-1102	136	14
157	-326	-655	-130	21
158	-1523	-717	45	28
158	-1697	-417	93	93
158	-654	204	-47	92
157	1139	631	-61	98
157	2090	229	-3	87
158	2222	320	-9	75
158	1693	353	-83	2
158	841	928	-43	-136
158	422	1047	-28	-162
157	-236	-112	-16	-47
158	-983	-791	25	2
157	-645	-227	38	-27
157	226	353	182	-17
158	81	330	225	-3
158	-600	130	139	23
157	-431	-209	84	42
158	-198	-370	167	71
157	-368	-114	223	105
158	-320	30	-90	116
159	-703	-558	-303	52
157	-1167	592	-325	-57
158	-1667	1474	-445	-68
157	-1375	662	55	-58
158	-213	406	328	-1
157	708	109	-132	32
158	1536	382	-41	4
157	2368	29	-118	22
158	3015	-1091	-82	-21
157	2735	-1259	133	-17
158	1481	-494	28	-16
157	357	-482	55	-6
158	-145	-1027	-97	67
158	-466	74	-189	124
158	-381	762	-125	66
158	-682	1034	13	-33
158	-1070	1449	-11	-32
158	-1364	692	221	-141
158	-1331	-377	403	-159
157	-1181	-980	-14	-34
159	-1185	-716	-132	2
158	-251	-474	-96	-2
158	-237	-209	-24	-39
157	-1020	-103	126	-70
157	-682	-464	210	-13
158	82	-263	251	117
157	231	532	69	141
158	-517	1647	-137	116
158	-937	2560	-84	91
157	-640	1957	142	-32
158	-589	-128	199	-91
158	180	-1692	147	-77
157	2035	-1508	-51	-13
158	3279	-445	-238	-14
158	2715	-168	-83	-23
158	1291	-668	-109	38
158	-107	-1245	-135	-18
157	-545	-1423	30	-78
157	174	-793	-48	-33
158	714	382	-114	-12
157	725	1307	62	-52
157	117	1157	189	-33
158	-474	485	130	-38
158	-1143	-332	120	-28
158	-2091	-191	145	51
159	-2811	330	-20	160
157	-2498	-122	-167	200
158	-1531	532	-161	98
157	-779	1356	-68	-13
157	251	397	145	-65
157	1395	-1018	122	-24
157	2590	-1369	-8	-17
157	2554	30	-18	30
157	1593	258	-71	83
157	1370	-125	-83	60
158	1147	103	-11	22
157	641	477	-34	-27
157	158	1948	6	-52
158	-129	1844	104	-23
157	-320	570	-6	26
158	-950	-906	-7	41
157	-2232	-1944	-102	90
157	-2426	-1719	-185	26
157	-1324	-1018	-22	-90
158	-624	-536	77	-78
159	116	-333	97	-57
158	654	146	-90	-8
158	679	294	-143	41
157	-70	798	-44	-18
158	-1003	918	162	-131
157	82	383	400	-92
157	765	480	314	30
157	962	975	129	15
158	1573	993	-55	-17
158	1127	306	-127	-31
157	754	-494	-68	-38
158	295	-112	9	-14
158	434	-258	53	18
157	281	-1863	34	66
157	-431	-792	23	26
157	-275	444	34	-38
158	-63	23	-8	-32
157	187	-88	-86	-30
157	69	-407	-79	7
158	-222	-600	-95	88
158	-401	-439	-101	72
157	-836	-186	141	-45
157	-1236	274	217	-28
158	-1555	1085	-26	66
158	-1750	1347	-107	80
158	-854	782	-181	93
158	68	387	-73	-16
158	-465	-593	216	-111
157	-935	-377	78	30
158	-595	-72	-171	116
157	-145	-702	-108	16
158	815	688	19	-42
158	1873	1218	14	-39
157	2890	669	28	-12
158	3076	-328	53	-6
158	1841	-1442	56	-17
158	694	-848	-8	-44
158	-397	-609	4	-49
157	-1245	-440	47	43
158	-2306	181	-32	104
157	-3033	519	-67	103
158	-2368	1110	9	4
158	-754	1239	113	-17
157	966	321	-28	101
158	2010	-697	-114	124
157	2208	-558	-100	74
158	1225	536	-144	-13
158	-71	490	36	-141
157	-1194	-433	161	-178
158	-1132	-810	192	-100
157	268	-1100	157	-35
157	1293	-827	-10	2
158	1774	538	-21	-32
158	1693	894	-11	-95
158	793	54	8	-69
158	-318	-135	98	3
158	-1297	-767	-91	46
158	-1384	-368	-173	-37
158	-875	51	163	7
157	-149	-555	231	86
158	499	261	4	39
157	-3	1203	7	15
157	-935	1271	42	-44
157	-1073	981	24	-5
157	-456	456	15	57
157	-744	-456	-27	19
158	-1792	-848	-84	29
158	-1207	-769	-232	55
157	58	975	-258	30
157	499	2903	-125	9
158	920	2024	-10	-10
157	1678	625	168	-72
158	2456	-1517	356	-159
157	2185	-2460	297	-120
159	1158	-1609	109	-5
157	391	-1702	-75	31
157	-390	-1294	-219	101
157	-1098	-509	-104	127
158	-1604	-503	50	61
157	-1493	-8	-25	40
158	-779	-259	73	-73
158	-149	-202	261	-47
158	542	734	83	65
159	654	826	-59	12
158	69	1292	-56	0
158	-95	1064	-54	-57
158	543	967	-35	-56
158	1109	1074	-98	-57
159	1083	505	-46	-67
158	847	-444	235	-21
157	-69	-994	451	27
158	-950	-581	220	85
158	-1656	-566	-84	82
157	-2102	-83	-192	28
158	-1195	-197	-518	-8
157	-387	19	-369	58
158	-332	893	-10	85
157	281	1550	-109	132
157	90	2373	-145	198
158	-282	1352	-189	83
158	673	-652	166	-164
158	532	-2550	364	-200
157	277	-1149	41	-7
158	619	654	33	22
158	609	-1268	122	-50
158	319	-1689	91	-97
157	20	-1149	-72	-65
158	748	-376	2	-37
158	1593	-390	137	-41
158	736	-300	50	-21
158	-879	756	-17	7
158	-407	855	-6	17
158	720	807	94	36
157	835	-99	-51	99
158	750	55	-129	142
157	-373	1264	-161	178
158	-2178	1348	-145	139
157	-2634	1135	-149	50
158	-1668	1161	-131	-85
158	-817	-24	252	-98
157	173	-980	257	-49
158	754	-1008	207	-111
158	712	-1014	341	-140
158	599	-827	210	-135
157	935	-399	111	-25
158	2047	582	-18	49
158	1871	1527	-188	41
157	1059	1437	-191	54
158	325	504	-129	4
158	-179	-88	-66	-4
158	-161	-391	-62	-42
158	-110	-1187	3	-63
157	287	-1193	66	-3
158	246	-1324	-32	46
158	-724	-1462	33	67
157	-1933	-860	112	84
158	-1792	-649	-98	117
157	-1277	460	-151	48
158	-1071	762	39	-2
157	-536	1106	-29	22
158	-465	1153	-189	88
157	25	966	-118	6
157	209	732	229	-217
158	135	-89	538	-214
158	985	-9	293	-115
158	1451	-385	34	-26
158	491	-316	14	11
157	-618	79	-44	22
159	-740	-222	-46	-11
158	-608	-580	20	-91
157	43	-572	49	-34
158	627	13	-151	77
158	755	567	-203	91
158	736	1245	-27	40
157	81	2049	-15	15
158	-724	1790	-9	15
157	-1377	1096	55	10
158	-1201	448	20	35
157	-611	-538	-66	51
157	-421	-2386	-30	34
158	-442	-3098	-20	48
157	426	-1436	-120	46
158	2161	56	-98	49
158	2554	142	-47	27
157	1678	-162	-24	-45
158	930	60	52	-13
158	815	-67	-42	70
158	665	403	-18	8
157	284	89	163	-19
158	-893	-43	27	104
159	-2964	225	-242	163
157	-2709	570	-266	105
158	-731	1886	111	-92
157	419	2094	518	-238
159	1579	1742	359	-89
157	1846	-596	155	-36
158	1435	-2709	105	-49
157	367	-2232	-99	2
159	-1448	-1017	-112	-12
157	-1885	-310	-193	48
158	-1051	-70	-223	44
157	132	75	-21	-4
158	1313	-326	150	-90
157	1970	-151	137	-86
159	1615	347	26	6
158	690	762	-13	-18
159	-244	852	-86	8
157	-918	952	-39	58
158	-1045	1631	55	28
157	-1424	1577	61	2
158	-2280	332	85	-5
158	-2178	-757	48	-22
157	-1023	-1493	4	19
158	150	-994	44	21
158	798	-436	-73	26
158	1273	-1050	-232	81
158	1796	-380	-208	92
157	1917	-30	-19	0
158	1267	-116	210	-147
158	320	-19	224	-88
158	-366	-76	48	-10
157	-1091	240	14	-34
158	-1280	437	74	-36
157	-1568	1064	72	-30
159	-3113	1307	24	12
158	-3092	985	-69	59
157	-1178	375	-87	110
157	505	-258	-203	75
158	1859	255	-210	-43
157	1870	1626	-17	-126
157	1581	1502	235	-159
158	1975	-832	290	-87
157	2531	-2217	1	81
158	2797	-1266	-191	139
158	2082	-1008	-98	93
158	1435	-128	1	94
158	689	173	2	62
158	-181	-1293	135	55
158	-1132	-1118	68	57
157	-1722	-904	-126	44
157	-1539	-259	62	-13
158	-1368	507	305	-80
158	-1319	596	105	-32
158	-1854	365	-112	34
158	-1736	185	-15	13
159	-848	813	-166	32
158	96	1820	-210	1
158	1316	1348	36	-133
158	1618	94	245	-206
158	1514	-670	226	-122
158	904	-1228	-24	-1
157	-595	-906	-41	19
158	-1412	-334	2	54
158	-1440	-27	-45	71
158	-1132	-210	-106	97
158	-181	-542	-40	37
157	266	-221	39	-19
157	635	748	15	52
158	1054	1019	-23	91
159	-27	882	-61	50
158	-479	97	-31	37
158	-672	-278	-128	81
158	-1232	58	-170	114
158	-366	-563	-144	35
158	1052	-66	-75	-134
157	2078	117	214	-176
158	2350	82	214	-31
157	1565	409	92	29
157	728	666	192	-98
157	-339	1604	184	-110
157	-1689	1849	93	7
157	-1463	1347	-1	58
158	-654	65	29	-18
157	-84	-1425	80	-87
158	234	-1118	24	-64
159	36	-107	-25	-7
158	99	-1397	-71	26
157	67	-1513	-130	50
157	-54	-967	-213	86
158	5	337	-199	52
158	568	1737	-6	-21
157	483	-107	275	-116
157	-123	-920	293	-71
157	-459	-1187	443	-42
157	-1106	-1363	389	-45
158	-1118	-1193	-109	12
158	-214	-184	-295	27
158	-753	610	-698	104
158	-1985	1048	-567	147
157	-1173	1692	78	161
158	-245	1737	-39	112
159	-8	2676	-157	2
158	546	1460	33	-90
158	2301	-948	151	-91
158	3818	-2341	311	-84
158	3189	-2914	218	-31
158	1573	-1641	128	-8
157	248	-572	179	-3
157	343	-281	41	-32
157	248	210	57	-115
158	-319	452	81	-55
158	-466	231	5	6
157	-488	546	-34	93
157	-415	1197	-140	100
158	-921	759	-197	60
157	-1201	382	-170	132
157	-1102	-117	-143	177
158	-920	283	-66	17
157	-507	1516	154	-61
158	-475	1607	184	45
158	-637	1218	168	-23
158	-540	-87	156	-94
158	-335	-1324	19	-64
157	-618	-1448	33	-31
157	-1246	-1061	-47	9
158	-1437	-1163	-164	29
159	-1282	-502	-195	65
157	-431	643	-150	-6
157	770	367	57	-52
157	747	576	207	-9
158	265	335	-2	22
158	1254	248	-171	20
158	1693	977	101	-86
158	1488	1209	234	-128
158	2100	915	166	-59
158	2625	113	130	-55
157	2590	-480	112	-56
158	1014	-1008	96	-46
158	-209	-1584	-15	-49
158	-599	-1554	-67	27
157	-796	-940	-75	91
158	-782	-1077	-172	127
157	-992	-581	-222	117
157	-1508	464	-192	72
158	-2178	513	-180	70
157	-1736	473	-190	61
157	-696	564	-152	-3
157	259	801	55	-110
158	750	253	224	-101
158	183	-125	327	-36
158	264	656	385	-51
158	471	330	233	-69
158	-186	-542	172	-67
158	-305	-311	84	-11
158	-251	-53	-12	55
158	-105	-219	-37	72
158	-177	234	-142	112
157	162	855	-210	140
158	423	1176	-214	105
157	91	2255	-239	69
158	402	2547	-162	3
158	96	1553	49	2
157	-66	-193	44	34
157	-293	-2483	-18	-78
157	-941	-2528	-77	-85
158	-840	-1409	-17	-15
158	-518	-1259	241	-43
157	556	-1180	180	1
158	1099	-653	81	-66
157	880	-875	171	-124
157	853	-423	122	-15
158	793	398	57	10
157	613	-116	-62	31
158	-144	-93	-136	13
157	183	88	-85	25
157	899	738	28	88
158	880	1223	60	88
158	681	1516	16	14
158	273	1516	-10	10
158	-185	623	-21	18
157	-763	-401	86	-61
157	-998	-1086	88	-31
157	-1384	-317	-7	-2
157	-1594	536	-14	27
158	-1508	496	-36	23
158	-1247	250	10	-30
158	-346	-240	99	-35
158	424	-188	65	-83
157	1139	387	59	-40
157	1504	135	-73	6
158	1293	-87	-250	38
157	886	-480	-271	49
157	14	-988	-105	17
158	-607	-587	50	2
159	-1105	-175	-101	-10
158	-1555	570	-84	34
158	-1639	894	191	6
158	-1064	947	267	-54
158	-289	1071	212	-96
158	-4	-3	120	-55
158	412	-1304	41	-23
157	615	-1450	75	-38
157	852	-1083	130	-28
158	880	103	74	-49
158	468	710	29	-28
157	754	877	-21	19
158	499	764	-207	120
158	-180	-558	-357	157
158	-250	-302	-296	105
158	-27	13	-107	55
158	1191	-490	-43	-10
157	1605	-407	156	-95
158	1170	-412	283	-129
158	1098	-344	145	-18
158	690	368	116	48
158	248	805	94	35
157	-191	467	-8	72
157	-445	254	-137	60
158	-459	-239	-70	35
158	-566	-34	96	19
158	-869	726	48	32
157	-1023	536	-166	77
158	-664	740	-214	50
158	-357	748	-62	-30
157	-372	697	152	-94
158	-782	70	250	-83
158	-1384	-1380	11	8
157	-1978	-1409	-61	30
158	-2273	-1118	-8	9
157	-1280	-555	-70	37
158	-191	407	-26	27
158	18	545	-92	37
157	385	642	-130	-24
157	1471	122	-9	-96
157	2910	-697	146	-122
157	3059	-248	273	-139
158	2501	259	152	-64
157	1982	-76	6	-52
158	1293	-408	-10	6
158	422	186	-151	60
157	-861	918	-270	-27
159	-1474	861	-82	-24
158	-1312	610	119	37
158	-1017	491	260	110
158	-442	310	181	162
158	357	-311	43	146
158	491	-1352	-15	129
158	145	-1555	4	-16
158	-405	-1623	296	-168
158	-817	-733	225	-126
158	-1023	-103	118	-92
157	-744	-76	87	-84
157	-55	750	-34	-14
158	-142	687	-53	66
158	-652	797	-209	148
157	-1049	278	-214	89
158	-682	392	-229	-75
158	-329	884	-100	-40
159	-978	592	21	77
157	-1974	448	-178	45
158	-977	1382	-207	9
157	1421	2316	43	0
158	1982	750	236	-74
157	2314	-706	183	-96
158	2890	-1187	212	-67
157	2890	-1193	157	-24
158	1747	-840	-1	4
158	-166	-1383	-97	41
158	-875	-1978	-250	117
159	-1158	-668	-244	105
158	-2280	597	-165	72
157	-3078	886	2	48
158	-1842	1518	32	53
157	-372	1075	32	29
158	611	102	218	2
157	1827	821	29	28
157	2315	1631	11	-78
157	1838	-474	194	-192
157	973	-1268	149	-184
157	1083	-2232	120	-123
157	1115	-2031	-102	-12
157	544	-298	-80	21
158	-617	-1268	14	46
157	-1989	-603	-126	34
158	-2410	128	-2	-24
158	-2014	753	47	25
158	-978	1291	-8	46
157	56	1004	17	57
157	880	558	5	52
158	987	-391	-80	70
158	692	-522	-166	79
158	204	85	-16	35
158	-456	323	166	21
157	-481	296	172	6
158	-208	882	56	10
157	-373	1017	-2	9
158	-1268	788	-65	10
157	-1649	409	-186	35
158	-986	315	-7	-59
158	213	801	228	-97
158	953	406	96	-50
157	1257	-516	22	-84
157	1046	-1187	62	-12
157	555	-587	-46	31
158	880	-273	38	-26
158	471	-1089	-9	10
157	496	-748	-33	31
157	1034	-213	55	-4
157	987	555	-138	35
158	175	1078	-198	53
157	-2362	1335	-97	36
157	-3943	837	140	-32
157	-3058	-293	65	-28
157	-765	-1324	28	21
158	1233	-1424	270	-34
158	2396	519	148	-8
158	3273	1474	24	27
157	3320	1121	-75	29
158	2379	567	113	-54
157	1085	-142	547	-54
158	176	-494	278	46
158	-272	-682	-112	41
157	-595	-1296	-309	52
158	-868	-1654	-606	-2
158	-1324	-1324	-277	-78
157	-1603	-535	172	-131
158	-1842	303	-19	-17
157	-2219	489	-91	112
159	-1843	609	-12	27
157	-743	349	-65	59
158	30	608	-84	55
158	794	1019	-150	15
158	1517	276	5	-14
157	1508	-301	196	-101
158	900	-620	134	-56
157	194	-692	85	-6
157	-278	-59	109	-34
158	-398	271	74	-10
157	-378	-18	-58	88
158	-1098	288	-125	92
158	-2345	563	-35	18
157	-3322	1711	-89	24
158	-2455	2806	-122	77
158	-431	2198	92	-51
158	1522	373	134	-122
157	4000	-2589	102	-19
158	4000	-3434	78	29
158	3689	-1449	-184	64
158	1539	-238	-219	34
158	46	452	-26	58
158	-221	1106	170	-9
157	-229	852	291	-102
157	15	240	133	-72
158	-167	-711	130	-31
157	-690	-698	8	65
158	-1020	-244	-175	85
158	-1260	133	-121	96
158	-1411	24	-43	109
158	-1356	-321	112	10
158	-1274	-216	146	-105
158	-983	485	111	-134
158	82	815	-42	-55
158	1020	-12	17	-51
158	1271	-14	161	-85
157	903	-145	-26	1
159	209	772	-23	8
158	-158	1663	-32	31
157	-125	433	-202	102
158	-45	-1390	-97	35
158	-441	-2709	90	-60
158	-776	-1053	58	-45
158	-603	637	39	43
157	-670	687	-116	116
158	-1272	721	-183	43
158	-1377	154	48	-57
158	-194	804	135	-54
158	815	1578	69	12
158	812	674	-41	44
158	734	-587	-78	4
157	880	-1193	-98	7
157	1461	-2129	-39	2
158	1805	-1968	30	5
157	1033	-58	157	9
158	519	149	229	72
158	1174	371	6	105
157	1793	1489	-33	7
157	1488	1805	78	-112
158	718	1189	-11	-178
157	-294	-935	-82	-122
157	-1245	-2217	9	-34
158	-1809	-575	166	-38
158	-2362	338	127	10
158	-2498	-62	-54	47
158	-1331	241	47	24
157	3	-127	37	39
158	969	62	-65	12
158	1873	540	-60	22
157	1649	598	-89	-5
158	646	789	-125	29
158	-607	1437	-92	48
158	-1214	1972	171	-10
158	-1125	2227	111	30
157	-1243	1430	-71	48
158	-855	-827	-29	2
158	-274	-1564	35	-56
158	210	-1782	98	-15
158	758	-1639	17	33
158	364	-1941	-3	-36
157	-717	-1721	60	-85
158	-1632	-113	55	-6
158	-1781	-467	-38	102
157	-358	-182	-122	103
157	1355	98	-75	60
157	2295	635	-5	21
158	2364	666	-13	47
157	1237	-105	-126	50
157	564	-293	-117	-15
157	405	-215	12	-11
158	327	772	435	-39
157	-171	347	552	-47
157	-1048	671	-94	32
158	-1326	990	-566	38
158	-1412	708	-659	-77
157	-740	479	-167	-165
157	-329	156	403	-91
158	11	159	250	20
157	329	440	-69	85
157	-202	905	-166	123
158	-589	434	-110	25
158	-465	270	68	-65
157	47	485	201	-48
158	587	1431	223	-47
158	1488	1884	241	4
157	1565	-321	155	53
158	1071	-3662	-18	97
159	790	-3792	-173	157
158	-319	-1122	-202	132
157	-1071	-764	46	19
157	-985	-400	149	52
158	-817	482	13	99
157	-219	-113	-59	31
157	1050	-533	46	-74
157	1941	169	80	-160
158	1827	759	64	-150
158	712	227	102	-168
158	107	600	-12	-82
157	-146	77	-105	-42
157	-438	-730	-3	-103
157	-310	-490	137	-104
157	-531	65	-15	-15
157	-582	1110	-155	81
158	-874	2839	-113	111
157	-1064	3941	-56	51
158	-1230	2162	72	-46
157	-1364	-1144	140	-59
158	-1136	-3708	118	-28
157	-924	-2673	49	-7
158	-656	-1335	54	-1
158	-595	-1508	40	-15
157	379	-632	-28	-25
158	1254	105	-32	-5
157	1105	708	-36	27
158	-358	875	-28	78
158	-2302	643	-126	115
158	-1477	102	-167	55
158	437	-501	-100	25
158	1522	-91	-33	14
157	2242	6	79	-27
158	2693	239	127	-28
158	2639	934	174	-28
157	1083	1088	39	91
158	-515	1181	-159	156
158	-1282	1384	-284	110
157	-1309	1243	-81	-69
158	-557	783	429	-232
157	544	-219	371	-114
157	1644	-1959	128	-54
157	1601	-1786	47	-22
158	942	67	-94	51
158	55	963	-132	83
158	-724	1034	-118	49
158	-662	433	19	12
158	-504	-633	85	-13
158	-540	-1231	-49	31
158	-684	-1039	-81	52
158	-682	-1450	63	-19
157	-438	-1396	109	-18
158	-698	-654	-13	15
157	-1388	-520	80	22
157	-1528	93	28	29
158	-908	274	-124	70
158	-447	527	-53	67
157	180	758	-74	66
158	621	582	-125	92
158	776	519	-158	106
157	920	266	-119	64
158	395	303	-91	-4
158	205	832	-65	17
158	55	994	-18	-10
158	-35	367	201	-167
158	295	265	300	-181
158	475	408	39	-67
157	165	452	99	-46
158	-224	601	46	-48
158	-101	535	-17	-69
159	-244	65	98	-56
157	-288	-428	69	-7
158	-36	-631	38	0
158	144	-780	-37	28
157	147	-466	-123	114
158	-372	-331	-232	146
157	-72	-872	-71	27
158	118	-935	-22	22
157	437	-163	-52	31
158	1580	394	162	-86
158	1678	582	198	-89
157	1279	695	120	-39
157	415	-5	5	-14
157	-86	-131	-19	-1
158	-11	13	36	-12
157	-93	65	-20	-13
158	-297	55	-38	0
157	-682	197	177	-100
158	-790	671	305	-102
157	-908	144	-3	41
158	-909	-282	-151	28
158	-589	-879	-31	21
158	-603	-552	-54	80
157	-1308	149	-8	87
158	-1796	113	135	65
157	-1377	4	295	64
157	-580	-137	267	86
158	361	-376	-99	9
158	1293	-486	-238	-102
158	1731	387	-367	-125
158	1014	663	-422	-67
157	-60	711	27	-39
157	-101	1555	74	0
158	190	1685	-75	0
158	716	14	38	-103
158	1313	-1958	60	-52
157	1827	-1767	159	48
158	1857	-1573	13	123
157	1115	-1450	-152	134
159	165	-217	-7	54
157	-391	-56	32	65
157	-368	169	39	39
157	-638	345	70	-1
158	-810	404	66	19
158	-903	499	0	-52
157	-1132	434	-18	-80
157	-1160	503	-4	-4
157	-1159	331	-40	-16
157	-969	362	-3	-9
158	-682	278	-3	0
157	-130	347	2	-15
158	135	287	25	-20
157	-29	232	-47	-18
158	793	260	-66	-27
158	1409	230	-42	-9
157	1170	233	-96	19
158	696	86	-53	12
157	50	93	201	17
157	-106	255	318	25
158	-213	360	72	48
157	-289	18	3	46
158	-431	-108	75	40
158	-561	-19	33	-9
158	-728	-406	56	-16
157	-950	-501	-42	32
157	-523	-135	-116	25
158	-160	-74	-62	-10
158	-66	-59	-4	-30
157	295	62	-47	4
158	994	107	-179	33
157	933	83	-162	-4
158	-219	4	97	-50
158	-536	-55	186	-57
157	53	-76	17	7
157	438	189	68	68
158	679	403	93	6
158	505	356	65	-41
157	-262	147	24	-42
157	-921	-321	7	-50
157	-906	-670	184	-57
158	-104	-520	91	-22
157	734	-224	-59	-21
157	1099	-220	-12	-63
158	1549	-66	52	-8
157	1457	196	48	56
158	736	227	-78	97
158	158	203	-70	94
158	-280	62	-44	69
158	-474	3	-78	73
158	-552	-19	5	40
157	-515	10	103	-4
158	-431	92	69	-54
157	-270	188	-2	-114
157	-213	370	-43	-108
158	-341	533	-96	-50
158	-397	245	32	-33
157	-525	-125	63	-12
157	-541	-227	-42	37
158	-235	-433	-26	44
158	308	-150	-18	27
157	407	-11	21	11
157	271	-376	35	33
158	169	-580	-31	42
158	71	-128	-74	0
158	69	148	10	-15
158	-53	108	50	18
158	-140	306	12	37
157	-324	-53	2	15
158	-492	-161	3	9
159	-875	213	0	33
157	-1424	674	-81	85
157	-994	649	-65	93
157	-60	695	-50	54
158	199	1317	-98	36
157	409	1300	-94	8
157	1020	1111	-24	-53
157	1678	-339	144	-106
157	1841	-2074	336	-120
157	1370	-1312	488	-126
157	835	-1707	237	-54
157	231	-1360	-106	2
157	-283	-424	-141	-16
158	-690	-781	-74	0
157	-1184	60	-74	43
158	-1351	-115	-125	57
157	-889	283	-48	8
157	-189	624	-35	-41
158	286	913	-68	-50
157	55	1177	4	-30
158	-300	597	25	19
157	128	-88	-21	43
158	127	-1045	-66	14
157	368	-1036	-156	22
158	815	-91	-163	-2
158	1143	309	-123	-27
157	1451	197	-104	3
158	542	406	129	18
157	47	273	321	33
157	-160	489	116	53
158	-666	420	43	67
158	-1023	414	194	45
158	-854	423	133	18
158	-234	-20	71	-29
158	-5	-205	30	-50
158	131	-137	2	-42
158	107	90	-18	-28
157	100	44	-47	4
158	-28	146	-36	9
158	-209	40	-64	20
158	-219	-29	-51	22
158	-237	5	-18	22
158	-220	-50	36	41
158	-259	5	35	74
158	-243	40	31	115
157	-185	127	69	130
157	-69	22	49	129
158	30	21	35	105
157	98	19	3	63
158	115	17	6	-7
157	30	30	17	-98
158	-40	14	24	-215
158	-66	20	31	-302
158	-31	-1	-17	-250
158	11	1	-11	-111
158	72	-12	14	-14
157	95	1	1	-28
158	85	-11	-35	-95
158	77	2	-70	-80
158	39	-6	-65	4
158	16	-11	-11	30
158	17	-8	-7	31
157	33	-16	-20	41
158	46	-7	-8	47
158	68	-14	-17	55
157	74	-8	10	63
157	78	-14	61	87
157	68	-8	125	105
157	55	-5	99	97
157	39	4	-72	74
157	28	9	-205	70
158	32	6	-103	72
157	15	2	-48	70
157	16	4	-106	31
158	12	-1	8	-58
157	-39	-26	103	-142
157	-129	-23	122	-123
158	-133	-4	63	-39
157	-98	11	3	-5
157	-154	67	34	21
158	-170	109	16	18
158	-36	55	-8	-5
157	29	-8	-9	6
158	-39	-14	-6	20
158	-3	111	24	26
158	-4	174	58	23
157	65	127	22	3
157	363	27	-19	-9
158	539	-278	60	4
157	505	-321	75	29
158	420	-2	32	39
157	300	62	68	-10
158	134	28	71	-44
158	-20	-11	35	-24
158	-156	-135	-20	-29
157	-196	-97	-15	-30
157	-115	-103	-20	-6
157	-53	-143	-42	19
157	-237	97	-55	31
157	-529	287	-90	31
157	-482	423	-53	17
158	-273	642	29	-10
157	-3	610	46	-8
158	304	423	-1	-10
158	591	262	-13	7
158	511	-18	4	0
157	16	-609	90	-20
158	-253	-965	91	-5
157	-116	-1098	54	-16
158	-34	-708	42	-12
158	64	-68	-9	-9
158	197	-111	25	-14
158	135	90	-3	-6
158	101	161	-30	-5
157	-39	148	-24	9
158	-131	220	-49	27
157	-144	179	-47	26
157	-167	231	-45	18
157	-144	174	-11	18
157	-164	197	62	39
158	-96	165	87	52
157	-47	181	38	43
158	-30	150	51	40
157	-15	131	40	30
158	-29	130	28	-14
157	-22	105	35	-46
158	-9	100	4	-55
157	-2	71	2	-60
157	3	75	-12	-28
158	8	53	-14	-4
157	8	54	-14	-10
157	8	33	-29	-13
158	5	33	-25	-9
157	12	24	-7	4
157	15	14	-6	-4
158	14	9	-9	-20
158	15	4	-8	-13
158	13	7	-7	-6
157	17	5	-1	6
157	19	14	10	14
158	23	7	6	11
157	24	6	-8	12
157	21	1	-11	13
158	21	-1	3	9
158	24	-3	10	14
158	21	-3	8	11
158	17	-3	3	6
158	19	-5	5	5
158	19	0	13	7
157	18	-1	16	16
158	12	-3	11	15
157	13	-6	-10	0
157	15	1	-17	-11
158	4	5	2	-3
157	0	7	6	17
158	2	6	18	37
158	0	3	39	57
158	1	7	37	61
158	9	10	28	34
158	24	15	30	-6
157	36	14	26	-57
157	31	18	25	-86
158	32	25	29	-64
158	36	22	80	-29
157	18	13	41	-14
157	4	13	-80	-26
158	7	17	-19	-40
158	1	13	38	-25
158	-26	18	-17	-8
157	-65	22	-49	-5
158	-47	17	-52	19
157	13	12	-10	11
158	45	17	-12	4
158	58	23	28	14
157	51	23	39	18
157	57	20	10	34
158	53	15	-2	27
158	1	17	-39	10
157	-52	14	-22	-15
158	-87	8	-10	-30
158	-103	14	20	-43
158	-56	16	25	-26
158	13	9	42	-2
158	62	7	59	1
157	117	18	43	-4
158	114	31	23	-5
158	16	34	-6	6
157	-80	26	1	16
158	-54	24	0	23
157	9	21	22	24
157	39	19	30	33
158	73	25	9	32
158	68	27	-18	17
158	50	28	-30	11
158	51	38	-18	19
158	55	41	-11	22
158	26	32	10	18
158	-25	29	-4	18
158	-49	18	-16	15
158	-23	15	-16	15
158	-32	10	1	9
158	-136	7	31	7
157	-240	14	31	12
158	-258	9	41	19
157	-136	14	50	14
157	57	17	22	-2
158	194	11	-8	-18
158	296	15	2	-23
158	392	36	12	-2
158	288	51	5	19
158	52	40	14	36
157	-47	31	6	46
158	-92	26	-13	51
157	-158	31	1	38
158	-148	32	14	31
158	-33	22	-6	27
158	46	9	4	-8
158	85	-7	29	-44
157	136	-6	45	-73
158	125	1	60	-93
158	74	14	40	-93
157	-19	36	-6	-56
157	-81	25	-8	-18
157	-61	-24	0	-17
158	-38	-43	12	-11
157	-43	-36	53	-8
157	-42	-49	19	-11
158	-39	-40	-26	-16
158	-35	30	-44	-19
159	-37	186	-49	1
158	-41	208	5	15
158	-29	57	27	26
157	-30	43	-28	31
158	-27	29	1	33
158	-25	-12	45	25
157	-23	-1	13	8
158	-26	-9	6	1
158	-14	-9	2	0
158	4	-23	21	23
158	4	-15	2	39
157	0	-9	-32	46
157	-7	-12	-31	75
158	-5	-16	-21	75
157	-4	-19	8	71
157	-3	-16	16	82
157	-1	-10	26	62
157	-3	-6	10	69
158	2	-9	19	91
157	7	-5	9	105
158	10	5	-21	91
157	13	10	55	15
157	13	4	109	-72
157	5	1	98	-158
158	-1	2	40	-253
157	4	11	-2	-275
157	15	21	-24	-184
157	15	22	6	-138
157	11	17	65	-45
158	5	9	14	71
157	5	19	-89	20
158	14	32	-121	-50
158	18	29	-52	-112
158	20	29	-64	-135
159	15	29	-82	-80
158	9	25	-37	-2
158	5	25	44	40
158	3	26	140	-4
158	1	26	115	-101
157	-5	16	98	-58
157	1	13	77	89
157	10	25	8	86
158	13	29	-45	88
158	12	24	-45	93
157	9	19	-11	91
157	12	21	-29	143
158	13	23	-19	142
158	11	19	2	139
157	5	15	17	86
158	3	20	12	9
157	8	17	8	-78
158	3	17	4	-79
157	0	18	-40	-19
158	-2	13	-25	18
157	4	18	3	10
159	13	24	2	-78
158	17	26	-12	-101
158	17	25	-30	-64
157	9	26	-45	-24
158	8	25	-11	-5
158	7	20	25	-19
158	8	25	21	-53
157	14	24	81	-65
157	13	20	58	-67
158	8	24	19	-62
158	6	19	23	-29
157	5	17	-14	32
158	3	14	8	53
157	-1	14	4	69
157	4	19	-21	83
158	8	17	5	87
157	8	24	28	94
158	15	29	31	85
158	14	24	6	73
158	12	25	-17	67
158	13	29	-3	64
157	9	21	3	41
157	7	22	-5	30
158	9	27	66	33
158	11	16	127	-7
157	3	13	32	-21
157	0	19	-11	-11
158	1	13	73	-23
158	-8	11	47	-18
158	-5	19	-24	14
157	3	23	-6	12
158	7	19	-5	2
157	10	14	-9	8
158	10	11	6	6
157	5	14	-9	2
157	4	16	-1	13
158	3	17	-10	30
158	1	15	-9	28
157	7	21	0	28
158	14	25	0	17
158	12	22	-9	11
157	11	19	-19	16
157	14	23	-14	2
158	14	28	-19	-15
157	7	22	-3	-41
158	8	15	10	-29
157	9	15	-22	-13
158	7	11	-41	-15
157	3	10	-31	-9
158	5	15	-34	-14
158	5	18	-36	-4
157	4	15	-35	-6
158	3	15	-27	-13
158	-2	21	-6	-12
158	0	23	77	2
157	6	23	80	35
157	5	23	-2	61
158	4	15	50	57
158	4	19	21	61
157	1	18	30	64
157	-3	15	52	48
157	-5	22	-4	42
159	-4	21	10	-29
157	-1	17	-23	-89
158	1	14	25	-107
157	12	19	60	-135
157	20	19	46	-156
157	24	19	27	-156
158	27	21	-8	-115
157	21	24	20	-74
157	5	19	15	-30
157	7	18	-20	20
158	7	10	15	40
157	-2	8	23	37
158	6	23	-50	31
157	7	22	-46	32
157	7	21	-50	16
158	3	17	-50	-17
157	0	12	-17	41
157	-1	9	29	142
157	-4	9	40	247
158	0	18	-127	339
158	1	18	-198	268
157	2	22	-49	117
158	4	19	53	-68
158	10	25	200	-265
159	12	30	325	-348
158	16	32	321	-448
158	8	30	229	-403
158	-7	21	80	-96
159	2	17	48	10
158	3	7	-52	10
157	-3	7	-122	26
158	-2	3	-169	1
157	-4	6	-140	16
157	5	21	-27	-30
157	10	24	8	3
158	8	24	56	22
157	8	18	-1	54
158	3	11	-3	70
158	0	17	-43	52
157	8	23	-100	64
157	12	23	-51	48
157	12	19	77	47
158	8	18	177	39
158	5	23	-23	63
158	3	16	-64	72
158	3	17	34	91
157	5	15	3	59
158	1	13	-21	13
157	-1	11	-67	18
157	3	12	-41	36
158	5	19	15	56
158	7	23	10	39
158	6	26	8	40
158	8	22	-4	29
157	4	21	6	16
157	1	19	14	0
158	5	24	-15	-1
158	5	28	-24	-9
158	5	22	-29	1
157	8	22	-20	22
157	5	18	7	18
157	6	25	31	14
158	4	22	29	-2
158	1	19	-3	-14
158	1	19	-34	-13
158	-1	19	-13	-6
157	4	19	5	-12
157	7	21	8	-1
157	5	18	25	8
158	4	15	45	11
158	5	18	42	13
157	6	15	6	12
157	0	12	24	16
158	2	14	2	5
157	1	13	-27	22
158	1	13	-1	41
158	4	19	-17	20
157	2	14	4	-17
158	3	11	39	-32
157	1	11	33	-17
158	3	15	48	-8
157	5	16	105	-25
158	5	14	64	-32
158	9	19	-5	-18
158	12	18	18	10
158	8	17	31	50
157	4	17	30	65
158	1	13	7	91
158	-2	15	-19	85
158	0	19	-13	26
158	0	14	11	-30
158	3	16	37	-91
158	8	20	26	-85
157	12	21	-29	-95
159	14	24	-83	-155
157	9	19	-77	-137
158	9	24	-51	-121
158	9	28	-10	-103
158	5	24	60	-64
158	4	21	37	-83
158	7	24	1	-48
158	9	25	-67	-19
158	5	20	-144	-10
158	4	16	5	18
158	3	19	127	12
157	1	17	208	35
158	-1	18	207	47
157	-1	17	69	64
157	-2	15	-20	69
158	-2	19	-49	68
157	5	22	-93	78
157	4	21	-68	65
159	3	22	-71	66
158	4	22	-92	55
158	4	17	16	32
157	7	22	21	26
158	7	25	60	36
157	10	27	69	49
157	9	27	80	44
157	4	23	71	-5
157	2	14	13	-57
158	1	13	28	-44
158	5	24	-33	-14
157	4	17	-35	-18
157	5	9	-22	-3
158	7	10	19	20
158	0	15	35	38
157	4	18	-21	62
158	10	22	-4	48
158	11	24	1	-8
158	9	17	-8	-49
158	4	10	-41	-48
158	0	10	10	-34
158	-3	15	-4	-14
157	2	20	-39	19
157	8	20	0	27
158	4	19	9	33
158	5	15	70	43
158	8	17	50	29
158	6	20	32	35
158	9	19	26	27
157	5	19	-6	19
157	5	22	-19	6
158	10	22	-9	-41
158	6	15	-15	-55
158	8	14	-71	-30
157	8	19	-75	9
158	7	18	-85	34
159	5	18	-62	13
157	4	17	45	-9
158	5	19	95	-19
157	3	17	176	-48
157	3	14	201	-43
157	2	21	9	-57
158	-1	19	-12	-98
157	-6	14	-7	-69
158	-3	18	-66	-41
158	4	19	-13	-15
158	8	19	12	6
157	10	16	20	23
158	8	14	-32	41
157	7	19	-47	40
158	5	22	-7	42
158	3	17	33	40
157	2	13	65	44
157	3	17	27	34
157	5	22	-9	14
158	5	19	15	5
157	7	18	19	4
157	5	20	-10	9
157	7	19	-28	21
157	10	22	-38	47
158	8	21	-32	79
157	5	17	-46	83
158	5	18	-33	51
158	4	13	-1	-5
158	4	17	5	-73
158	5	17	19	-125
157	2	17	58	-115
157	7	24	20	-81
158	5	20	18	-80
158	3	18	59	-39
158	7	22	63	62
158	5	17	97	125
157	3	12	25	149
158	6	14	-22	185
158	4	13	-31	181
158	5	15	-13	124
158	8	21	12	32
158	11	21	-18	-89
158	9	24	-33	-208
158	11	26	-67	-223
158	16	29	-77	-222
158	12	27	-105	-195
158	4	19	-48	-108
157	3	20	63	-65
158	8	22	81	8
158	3	26	104	1
158	-3	23	147	-9
157	1	17	124	9
158	2	19	90	19
157	4	19	12	30
158	3	21	-30	18
157	3	17	1	42
158	5	17	4	52
158	3	16	23	66
158	4	17	6	58
158	4	17	-2	55
158	2	14	-12	50
157	1	13	-22	46
158	7	15	-28	57
158	7	17	-48	47
157	4	17	-24	46
157	4	15	-3	43
158	8	18	-16	42
157	5	18	-30	42
158	4	14	-26	27
157	4	13	-32	0
158	6	19	-6	-22
158	7	16	40	-42
157	3	15	56	-41
157	3	19	66	-22
158	4	19	81	4
157	6	19	49	8
157	8	17	37	5
157	7	23	20	6
158	4	21	-6	4
158	5	17	33	10
157	8	20	7	10
158	4	19	2	8
158	5	15	3	4
157	7	19	-5	3
157	5	19	8	-4
158	5	19	-17	-9
158	5	20	-11	-16
157	5	15	-11	-17
158	4	13	-12	-9
158	7	15	-18	-8
158	9	14	-23	0
158	11	15	-7	-5
157	5	22	-2	-1
157	2	21	4	3
157	4	20	21	-4
158	5	17	29	7
158	8	11	0	19
157	5	10	11	22
157	0	10	13	15
157	3	18	-20	8
157	-1	18	9	15
158	-1	20	2	34
158	0	23	-23	39
157	1	19	-19	22
158	9	22	-8	-11
158	15	29	-6	-51
157	11	26	-22	-87
157	7	22	-39	-89
157	6	24	-37	-39
159	5	19	42	25
158	5	16	84	74
158	0	13	41	105
158	0	11	32	124
158	-1	6	60	114
157	-2	8	12	42
157	0	14	-9	-48
158	5	25	63	-110
